# Created by:        SpecsLab Prodigy, Version 4.109.1-r116302 
#
# XY-Serializer Export Settings:
#   Comment Prefix:           #
#   Output Meta Data:         yes
#   Energy Axis:              Binding Energy
#   Count Rate:               Counts per Second
#   Separate Scan Data:       yes
#   Separate Channel Data:    no
#   External Channel Data:    no
#   Transmission Function:    no
#   Error Bar:                no
#   Operation Results:        no
#   Time Zone Format:         Local Time
#
# Group:                        Cell door open cooling
#
# Region:                       Na1s
# Spectrum ID:                  4
# Acquisition Date:             02/01/24 17:56:44 UTC+1
# Analysis Method:              XPS
# Analyzer:                     Phoibos DLD
# Analyzer Lens:                AngleResolvedMode30:1.5kV
# Analyzer Slit:                3:1x20\B:open
# Scan Mode:                    FixedAnalyzerTransmission
# Scan Variable:                Binding Energy
# Curves/Scan:                  1
# Values/Curve:                 241
# Dwell Time:                   0.1
# Excitation Energy:            1270
# Binding Energy:               1080
# Pass Energy:                  50
# Bias Voltage:                 5
# Detector Voltage:             1915
# Eff. Workfunction:            4.37
# Source:                       Monochromator (Dummy)
# Comment:                      
# OrdinateRange:                [-22.000000, 22.000000]

# Cycle: 0
#
# Number of Scans: 1

# Cycle: 0, Curve: 0, Scan: 0
#
# Acquisition Date:             02/01/24 17:47:46 UTC+1
# ColumnLabels:                 energy counts/s
#
1080  8310.5916
1079.95  8263.1378
1079.9  7694.596
1079.85  7936.502
1079.8  8674.3824
1079.75  8442.9222
1079.7  8071.0992
1079.65  8123.2559
1079.6  7786.9463
1079.55  8020.5709
1079.5  8115.2844
1079.45  8271.4503
1079.4  8108.5033
1079.35  8278.8912
1079.3  8556.1618
1079.25  8295.2361
1079.2  8770.1814
1079.15  8676.4091
1079.1  8261.8723
1079.05  8282.1488
1079  8440.9923
1078.95  8699.4764
1078.9  8423.1686
1078.85  8433.3099
1078.8  8407.5005
1078.75  8473.7141
1078.7  7852.1045
1078.65  8480.3248
1078.6  8287.1004
1078.55  7922.5734
1078.5  8546.5806
1078.45  8753.3865
1078.4  8403.2272
1078.35  8274.8385
1078.3  8468.2505
1078.25  8279.4637
1078.2  7586.0459
1078.15  8058.9022
1078.1  7820.5404
1078.05  8620.3063
1078  8387.0582
1077.95  8446.5701
1077.9  8275.8435
1077.85  8241.783
1077.8  7971.6278
1077.75  8370.4646
1077.7  8271.08
1077.65  8400.7813
1077.6  8163.0153
1077.55  8117.3617
1077.5  8195.17
1077.45  7739.2244
1077.4  8585.4664
1077.35  8672.6778
1077.3  8329.7168
1077.25  7732.0476
1077.2  7965.4464
1077.15  8030.1554
1077.1  8075.5511
1077.05  8315.3774
1077  7787.4804
1076.95  7605.4775
1076.9  8249.8297
1076.85  8195.4197
1076.8  8119.2015
1076.75  8384.2386
1076.7  7883.3722
1076.65  7740.4475
1076.6  7874.1928
1076.55  7815.9971
1076.5  8334.2358
1076.45  8654.365
1076.4  7900.7198
1076.35  8050.3938
1076.3  8026.1462
1076.25  8234.8964
1076.2  8072.7171
1076.15  7798.4202
1076.1  8388.3749
1076.05  8517.4232
1076  8289.5427
1075.95  8275.3803
1075.9  8542.6128
1075.85  8205.0155
1075.8  7997.3091
1075.75  8049.5968
1075.7  8247.8436
1075.65  8007.4408
1075.6  7772.3819
1075.55  8215.8096
1075.5  8040.4444
1075.45  8187.0089
1075.4  8466.2593
1075.35  7827.8383
1075.3  7962.7135
1075.25  7890.0435
1075.2  8242.4808
1075.15  8310.6982
1075.1  8088.0487
1075.05  7871.3119
1075  8437.626
1074.95  8138.2934
1074.9  8093.3805
1074.85  7672.8959
1074.8  7574.7256
1074.75  8158.3945
1074.7  8224.5971
1074.65  8201.7898
1074.6  8805.6106
1074.55  8250.1178
1074.5  8223.9652
1074.45  8112.003
1074.4  8473.8914
1074.35  8384.8767
1074.3  8464.749
1074.25  8660.349
1074.2  8108.7121
1074.15  8749.8204
1074.1  8335.1691
1074.05  8095.892
1074  8130.1111
1073.95  8431.6971
1073.9  8256.982
1073.85  8439.4764
1073.8  8604.8778
1073.75  8587.8439
1073.7  8614.1478
1073.65  8444.2438
1073.6  8422.6871
1073.55  8272.2109
1073.5  8142.9678
1073.45  8995.2348
1073.4  8703.4831
1073.35  8473.334
1073.3  8678.1343
1073.25  8406.9326
1073.2  8296.4248
1073.15  8953.6365
1073.1  8741.1772
1073.05  8531.2938
1073  8815.7549
1072.95  8693.3186
1072.9  8858.2185
1072.85  8198.6867
1072.8  8534.4326
1072.75  8599.9595
1072.7  8921.8
1072.65  8533.7216
1072.6  8713.6269
1072.55  8313.6467
1072.5  8402.2985
1072.45  8315.111
1072.4  8624.1581
1072.35  8687.1026
1072.3  8710.5262
1072.25  8624.3762
1072.2  8805.5305
1072.15  8792.8243
1072.1  8267.4149
1072.05  8865.6825
1072  9096.0849
1071.95  8377.751
1071.9  8063.8792
1071.85  8228.7473
1071.8  8050.2346
1071.75  8535.8823
1071.7  8353.0069
1071.65  7981.1795
1071.6  8284.8094
1071.55  8692.8743
1071.5  8393.1171
1071.45  7947.5275
1071.4  7669.2842
1071.35  7664.3062
1071.3  8169.0797
1071.25  8048.1777
1071.2  8550.5887
1071.15  8685.4921
1071.1  8190.4424
1071.05  8319.7483
1071  9011.1599
1070.95  8658.3369
1070.9  8526.4509
1070.85  8105.717
1070.8  8148.5339
1070.75  7795.9983
1070.7  7887.9328
1070.65  8197.3172
1070.6  8323.8658
1070.55  7869.8675
1070.5  8210.0593
1070.45  8207.7993
1070.4  7907.6047
1070.35  7991.9719
1070.3  8082.1033
1070.25  8307.9425
1070.2  8090.1502
1070.15  8407.9238
1070.1  8614.6078
1070.05  8258.0645
1070  8165.2217
1069.95  8037.905
1069.9  7901.2601
1069.85  8277.8602
1069.8  8205.1224
1069.75  7871.1314
1069.7  8506.8238
1069.65  8489.9929
1069.6  8635.7772
1069.55  8178.2449
1069.5  8208.8312
1069.45  8204.9366
1069.4  8228.7967
1069.35  7968.6756
1069.3  8180.8706
1069.25  8587.1223
1069.2  8490.2394
1069.15  8156.4809
1069.1  8298.1155
1069.05  8196.8904
1069  8602.9609
1068.95  8393.8101
1068.9  7934.0846
1068.85  8017.1958
1068.8  7929.6121
1068.75  8583.9848
1068.7  8436.8434
1068.65  8621.9663
1068.6  7965.9246
1068.55  8067.2862
1068.5  7927.8362
1068.45  8114.0582
1068.4  8451.3734
1068.35  8050.9508
1068.3  7952.0001
1068.25  8343.3917
1068.2  7851.0933
1068.15  8253.7269
1068.1  7984.6744
1068.05  8281.4465
1068  8395.1336

# Cycle: 0, Curve: 0, Scan: 1
#
# Acquisition Date:             02/01/24 17:48:25 UTC+1
# ColumnLabels:                 energy counts/s
#
1080  8516.1559
1079.95  7963.0991
1079.9  8742.5393
1079.85  8132.6932
1079.8  7624.7643
1079.75  8036.3611
1079.7  8366.2224
1079.65  8099.6791
1079.6  8275.9847
1079.55  8188.1454
1079.5  7978.7919
1079.45  7687.6959
1079.4  8094.0546
1079.35  8346.5418
1079.3  8145.7933
1079.25  8391.673
1079.2  8356.7153
1079.15  8135.6353
1079.1  8324.9143
1079.05  7999.2453
1079  8334.0725
1078.95  8330.3442
1078.9  8201.5276
1078.85  8308.56
1078.8  8450.608
1078.75  8197.0471
1078.7  8266.208
1078.65  8160.5112
1078.6  8098.9974
1078.55  8296.1038
1078.5  8578.536
1078.45  8572.6875
1078.4  8433.7768
1078.35  8577.2626
1078.3  8121.8595
1078.25  7919.3147
1078.2  8360.8557
1078.15  8622.2184
1078.1  8000.9966
1078.05  8221.7621
1078  8208.423
1077.95  8079.7656
1077.9  8159.2313
1077.85  8128.6687
1077.8  8130.0785
1077.75  8416.3616
1077.7  8410.4854
1077.65  8206.442
1077.6  7732.8968
1077.55  8114.6596
1077.5  8143.6076
1077.45  7778.3009
1077.4  8041.6166
1077.35  8266.2165
1077.3  8663.2383
1077.25  8567.5596
1077.2  8251.6194
1077.15  8289.6051
1077.1  8527.4284
1077.05  8919.911
1077  8573.8263
1076.95  7722.4296
1076.9  7945.3978
1076.85  8373.2143
1076.8  8480.7416
1076.75  7872.8439
1076.7  8238.2554
1076.65  7872.4582
1076.6  8484.8694
1076.55  8093.096
1076.5  7986.679
1076.45  8019.1601
1076.4  8564.2765
1076.35  8318.9191
1076.3  8302.8784
1076.25  8774.4372
1076.2  8504.778
1076.15  8104.8067
1076.1  8148.6156
1076.05  8462.3881
1076  8204.1788
1075.95  8251.8985
1075.9  8182.5157
1075.85  8662.4826
1075.8  8248.7808
1075.75  7833.7446
1075.7  7944.8263
1075.65  8219.3859
1075.6  8074.2667
1075.55  8208.2482
1075.5  8374.2693
1075.45  8262.861
1075.4  7809.3378
1075.35  8081.2573
1075.3  8156.8688
1075.25  8581.1615
1075.2  8200.7654
1075.15  8440.6887
1075.1  8039.0629
1075.05  8167.8454
1075  8430.4716
1074.95  8402.5638
1074.9  8297.3522
1074.85  8480.836
1074.8  8699.0806
1074.75  8534.912
1074.7  8278.2992
1074.65  8093.8455
1074.6  8405.6457
1074.55  8462.225
1074.5  8730.4189
1074.45  8444.3718
1074.4  8259.0905
1074.35  7942.9599
1074.3  8326.049
1074.25  8288.8658
1074.2  8122.8266
1074.15  8690.0859
1074.1  8039.7304
1074.05  8350.3272
1074  8400.4635
1073.95  8461.3165
1073.9  8308.7547
1073.85  8502.4603
1073.8  8408.5052
1073.75  8481.0139
1073.7  8820.7293
1073.65  8522.5769
1073.6  8368.2435
1073.55  8777.1474
1073.5  8729.6133
1073.45  8693.7402
1073.4  8164.1758
1073.35  8254.4628
1073.3  8647.693
1073.25  8614.08
1073.2  8442.9696
1073.15  8761.1993
1073.1  8601.1038
1073.05  8954.849
1073  8488.2383
1072.95  8536.8986
1072.9  8973.1474
1072.85  8867.857
1072.8  8908.2875
1072.75  8273.5442
1072.7  8961.2165
1072.65  8445.573
1072.6  8543.0571
1072.55  8665.1115
1072.5  8493.7865
1072.45  8772.6877
1072.4  8488.8259
1072.35  8620.9572
1072.3  8547.8292
1072.25  8329.7706
1072.2  8648.6267
1072.15  8467.798
1072.1  8694.2647
1072.05  8639.522
1072  8387.4795
1071.95  7587.4119
1071.9  8609.5885
1071.85  8435.1642
1071.8  7846.7914
1071.75  7901.2437
1071.7  8140.7634
1071.65  8001.3058
1071.6  8498.6492
1071.55  8146.6806
1071.5  7751.911
1071.45  8098.2816
1071.4  8197.1055
1071.35  8341.2046
1071.3  8004.4249
1071.25  7932.1994
1071.2  7642.2941
1071.15  8171.6145
1071.1  8293.8863
1071.05  8263.0271
1071  8149.8568
1070.95  8381.4285
1070.9  7987.3575
1070.85  8355.1125
1070.8  8384.6565
1070.75  8479.0429
1070.7  8671.0596
1070.65  8106.2736
1070.6  8070.5225
1070.55  8330.332
1070.5  8289.6702
1070.45  8075.6485
1070.4  8547.0048
1070.35  8138.3437
1070.3  8070.652
1070.25  8090.0796
1070.2  7997.2916
1070.15  8199.8019
1070.1  8184.7917
1070.05  8247.8846
1070  7939.1641
1069.95  8324.1814
1069.9  8027.774
1069.85  7819.1103
1069.8  7676.3072
1069.75  8036.8696
1069.7  8128.6418
1069.65  7910.511
1069.6  8052.1335
1069.55  8295.2356
1069.5  8249.0428
1069.45  8159.5353
1069.4  7621.927
1069.35  8154.5876
1069.3  8491.2627
1069.25  8246.2327
1069.2  7834.7568
1069.15  7841.5355
1069.1  8283.8143
1069.05  8502.7106
1069  7805.2263
1068.95  8086.321
1068.9  8625.1348
1068.85  8772.4528
1068.8  8661.3397
1068.75  8349.8252
1068.7  7946.918
1068.65  8142.0632
1068.6  8563.8419
1068.55  8586.2866
1068.5  8235.2368
1068.45  8206.0366
1068.4  8132.6962
1068.35  7908.1654
1068.3  8014.9688
1068.25  8032.4174
1068.2  8146.7992
1068.15  7913.8478
1068.1  7945.1205
1068.05  8436.303
1068  7944.6452

# Cycle: 0, Curve: 0, Scan: 2
#
# Acquisition Date:             02/01/24 17:49:03 UTC+1
# ColumnLabels:                 energy counts/s
#
1080  8104.0701
1079.95  7778.6167
1079.9  8005.367
1079.85  8097.7734
1079.8  8619.2671
1079.75  8231.0045
1079.7  8150.0539
1079.65  8015.8173
1079.6  7820.0745
1079.55  7876.7828
1079.5  8473.204
1079.45  8558.1937
1079.4  8389.3221
1079.35  8688.6168
1079.3  8495.9363
1079.25  8215.7326
1079.2  8137.5162
1079.15  7843.6616
1079.1  8203.5911
1079.05  8063.608
1079  8433.6153
1078.95  8164.4274
1078.9  7963.0694
1078.85  8079.3035
1078.8  8259.0996
1078.75  8261.0569
1078.7  8170.9893
1078.65  7584.7448
1078.6  8015.5468
1078.55  8264.783
1078.5  7612.9582
1078.45  7787.9201
1078.4  8392.6958
1078.35  8350.6155
1078.3  8073.5836
1078.25  8378.815
1078.2  8463.2707
1078.15  8030.4864
1078.1  8415.5219
1078.05  8808.4875
1078  8709.6568
1077.95  8189.4406
1077.9  8132.1177
1077.85  8152.1532
1077.8  7788.4936
1077.75  8220.1026
1077.7  8939.2561
1077.65  8447.8135
1077.6  8016.2107
1077.55  8170.3731
1077.5  8270.715
1077.45  8134.304
1077.4  8031.7743
1077.35  8233.0788
1077.3  8159.819
1077.25  8084.322
1077.2  8204.1215
1077.15  8002.9549
1077.1  7966.4906
1077.05  7738.376
1077  8381.8857
1076.95  7824.157
1076.9  8043.8949
1076.85  8138.2447
1076.8  7875.6064
1076.75  8234.8083
1076.7  8656.4136
1076.65  8546.526
1076.6  8498.9528
1076.55  8153.3152
1076.5  7689.9377
1076.45  8445.5643
1076.4  8309.4304
1076.35  8475.9452
1076.3  8137.6077
1076.25  8252.501
1076.2  8219.4932
1076.15  8533.5327
1076.1  8120.1534
1076.05  7940.7801
1076  8007.5648
1075.95  7828.1024
1075.9  8029.6197
1075.85  7720.8363
1075.8  8187.2163
1075.75  8558.9063
1075.7  8967.7778
1075.65  8314.5153
1075.6  7899.189
1075.55  8062.2661
1075.5  8472.7077
1075.45  8039.7863
1075.4  7871.5044
1075.35  8075.9514
1075.3  8469.9395
1075.25  8430.5806
1075.2  7970.1051
1075.15  8369.2125
1075.1  7894.3774
1075.05  7433.3931
1075  8309.0563
1074.95  8220.5865
1074.9  8174.0295
1074.85  8249.5822
1074.8  7840.6138
1074.75  8348.1117
1074.7  8481.3081
1074.65  8068.5451
1074.6  8397.0417
1074.55  8446.6829
1074.5  8551.0645
1074.45  7986.125
1074.4  8053.3174
1074.35  8303.4205
1074.3  8304.5911
1074.25  8205.5087
1074.2  8399.4521
1074.15  8166.2923
1074.1  8269.9446
1074.05  8520.3937
1074  8493.4878
1073.95  8338.0845
1073.9  8237.9793
1073.85  8685.3683
1073.8  8653.1679
1073.75  8390.0517
1073.7  8390.4691
1073.65  8293.4378
1073.6  8302.9167
1073.55  8526.2558
1073.5  8739.9035
1073.45  8831.1305
1073.4  8452.4796
1073.35  8280.5439
1073.3  8436.717
1073.25  8467.8139
1073.2  8368.9826
1073.15  8485.3924
1073.1  8738.892
1073.05  8335.3324
1073  8770.3133
1072.95  8388.9578
1072.9  8697.3129
1072.85  9231.1201
1072.8  9012.8315
1072.75  8500.8488
1072.7  8509.6309
1072.65  8344.6019
1072.6  9158.9457
1072.55  9068.9821
1072.5  8847.0859
1072.45  8265.837
1072.4  8669.5023
1072.35  8583.1084
1072.3  8369.5537
1072.25  8747.276
1072.2  8571.2014
1072.15  8472.6233
1072.1  8118.0061
1072.05  8687.342
1072  8490.7898
1071.95  8464.6016
1071.9  8764.8827
1071.85  9154.6053
1071.8  8866.4818
1071.75  8455.2228
1071.7  8419.2636
1071.65  8699.5165
1071.6  8064.5683
1071.55  7912.1625
1071.5  8251.3722
1071.45  8283.5176
1071.4  7752.1072
1071.35  8068.8359
1071.3  8175.6983
1071.25  8121.0296
1071.2  8056.5273
1071.15  8084.2865
1071.1  8519.6536
1071.05  8217.0874
1071  7776.2088
1070.95  8028.7607
1070.9  8363.5679
1070.85  8518.2483
1070.8  8090.3204
1070.75  8208.5925
1070.7  8258.1326
1070.65  8513.7671
1070.6  7975.7905
1070.55  8290.8487
1070.5  8252.6862
1070.45  8265.6821
1070.4  7776.3148
1070.35  8107.7516
1070.3  8390.1796
1070.25  8149.3201
1070.2  8493.434
1070.15  8138.9577
1070.1  8321.1504
1070.05  8082.3165
1070  7962.4354
1069.95  8419.0365
1069.9  8184.5759
1069.85  8467.7843
1069.8  8398.8732
1069.75  7978.9818
1069.7  8349.6102
1069.65  7918.9978
1069.6  8052.3991
1069.55  8302.2453
1069.5  8238.8658
1069.45  8499.6238
1069.4  8475.5827
1069.35  8550.3085
1069.3  8290.5345
1069.25  8275.6157
1069.2  8353.121
1069.15  8549.6871
1069.1  7961.7732
1069.05  8004.6104
1069  8090.294
1068.95  8601.6872
1068.9  8349.9469
1068.85  7898.9489
1068.8  8313.722
1068.75  8428.5077
1068.7  8040.6586
1068.65  8117.5792
1068.6  8298.3515
1068.55  8362.9966
1068.5  7846.4926
1068.45  8248.1539
1068.4  8104.1851
1068.35  8035.2452
1068.3  8404.5201
1068.25  7996.6535
1068.2  8138.2133
1068.15  8131.5865
1068.1  8354.3204
1068.05  8480.4111
1068  7683.4137

# Cycle: 0, Curve: 0, Scan: 3
#
# Acquisition Date:             02/01/24 17:49:41 UTC+1
# ColumnLabels:                 energy counts/s
#
1080  8221.8026
1079.95  7939.4128
1079.9  8222.0884
1079.85  8130.697
1079.8  7842.2262
1079.75  8215.984
1079.7  8258.6684
1079.65  8218.1951
1079.6  8219.1621
1079.55  8454.2822
1079.5  8440.391
1079.45  8627.453
1079.4  8445.9096
1079.35  8243.5719
1079.3  8220.2198
1079.25  7871.8584
1079.2  8180.619
1079.15  8522.4412
1079.1  8337.7601
1079.05  7867.9028
1079  7899.0638
1078.95  7995.0868
1078.9  7880.5376
1078.85  8296.3301
1078.8  8507.6296
1078.75  8461.8798
1078.7  8353.0375
1078.65  7957.9671
1078.6  8001.7665
1078.55  8669.4084
1078.5  8575.3387
1078.45  8613.7974
1078.4  8206.3604
1078.35  7809.5044
1078.3  7902.1995
1078.25  8409.4117
1078.2  8232.1631
1078.15  7834.1958
1078.1  8088.3233
1078.05  8253.3375
1078  8211.7183
1077.95  8064.455
1077.9  8163.7604
1077.85  8369.433
1077.8  8151.2785
1077.75  8481.8242
1077.7  8907.0216
1077.65  7963.7298
1077.6  8128.3743
1077.55  7965.3932
1077.5  8175.2523
1077.45  7911.7402
1077.4  8172.3314
1077.35  8123.5966
1077.3  7642.9786
1077.25  8290.7755
1077.2  7965.67
1077.15  8055.6229
1077.1  8769.6201
1077.05  8039.2422
1077  8521.9894
1076.95  8604.7309
1076.9  8207.3492
1076.85  8242.0298
1076.8  7959.9719
1076.75  8035.1465
1076.7  7637.9055
1076.65  7971.7053
1076.6  8251.2266
1076.55  8200.8457
1076.5  8511.3416
1076.45  8299.9836
1076.4  8409.9342
1076.35  8122.0737
1076.3  8242.5809
1076.25  8253.9415
1076.2  8121.2533
1076.15  8374.0109
1076.1  7869.7694
1076.05  7944.231
1076  8090.2323
1075.95  8096.0272
1075.9  8594.2248
1075.85  7744.2673
1075.8  7944.689
1075.75  8531.4908
1075.7  8715.7508
1075.65  8041.1372
1075.6  8034.3543
1075.55  8077.5124
1075.5  8179.9693
1075.45  8518.658
1075.4  7821.9756
1075.35  8179.8335
1075.3  8170.8341
1075.25  8150.8649
1075.2  8202.6952
1075.15  8546.2015
1075.1  8140.4131
1075.05  7783.0325
1075  8399.2185
1074.95  8238.4714
1074.9  8586.6679
1074.85  7902.6302
1074.8  7724.2278
1074.75  8343.9011
1074.7  8290.149
1074.65  8446.7859
1074.6  8120.8848
1074.55  8150.883
1074.5  8386.919
1074.45  8306.1982
1074.4  8114.5942
1074.35  8430.0797
1074.3  8052.5643
1074.25  8217.6889
1074.2  8115.7508
1074.15  8522.7437
1074.1  8628.7487
1074.05  8572.2075
1074  8151.3609
1073.95  8487.278
1073.9  7969.0001
1073.85  8155.9217
1073.8  7711.9323
1073.75  8523.5158
1073.7  8549.7565
1073.65  8440.9849
1073.6  9053.9389
1073.55  8516.5914
1073.5  8776.07
1073.45  7909.3485
1073.4  8097.2095
1073.35  8279.445
1073.3  9172.9308
1073.25  8763.4835
1073.2  9213.0975
1073.15  8878.8788
1073.1  8462.2357
1073.05  8529.3431
1073  8506.792
1072.95  8806.2974
1072.9  8719.5786
1072.85  8339.2035
1072.8  9019.2647
1072.75  8970.2914
1072.7  8042.6005
1072.65  8592.8555
1072.6  8885.5911
1072.55  8820.1921
1072.5  8205.0922
1072.45  8343.1895
1072.4  8286.0783
1072.35  8037.1871
1072.3  8530.4466
1072.25  8707.0396
1072.2  8525.038
1072.15  8494.9769
1072.1  8084.0909
1072.05  8538.3064
1072  8784.2421
1071.95  8602.6677
1071.9  7941.6126
1071.85  8654.8645
1071.8  8399.0404
1071.75  8032.9036
1071.7  7900.3702
1071.65  8199.9916
1071.6  8315.0344
1071.55  8292.7917
1071.5  7975.3079
1071.45  8404.0754
1071.4  8701.1735
1071.35  8571.601
1071.3  7882.8309
1071.25  8562.7488
1071.2  8524.1538
1071.15  8059.3712
1071.1  8162.7547
1071.05  8148.9414
1071  8291.1202
1070.95  7879.3171
1070.9  7964.4896
1070.85  8440.4463
1070.8  8290.514
1070.75  8134.3755
1070.7  8105.2566
1070.65  8398.7882
1070.6  8118.2742
1070.55  7935.5263
1070.5  7949.0705
1070.45  8009.1924
1070.4  8410.5434
1070.35  8441.378
1070.3  8304.0989
1070.25  8082.7502
1070.2  8021.9886
1070.15  8028.0245
1070.1  8136.8664
1070.05  8188.5395
1070  8604.6845
1069.95  8129.9163
1069.9  8185.7969
1069.85  8102.7416
1069.8  8047.5042
1069.75  7764.0646
1069.7  7569.891
1069.65  7596.6951
1069.6  7623.5441
1069.55  7625.055
1069.5  7837.2658
1069.45  8310.8616
1069.4  8536.3346
1069.35  7828.7607
1069.3  7742.74
1069.25  8379.1194
1069.2  8314.8262
1069.15  8355.014
1069.1  8054.8498
1069.05  8623.1422
1069  7874.9658
1068.95  7620.8983
1068.9  7723.5511
1068.85  7979.5126
1068.8  8118.8042
1068.75  8316.7831
1068.7  7877.6058
1068.65  7510.488
1068.6  7883.2331
1068.55  8338.0441
1068.5  8256.3436
1068.45  7988.6577
1068.4  8289.8897
1068.35  8103.1198
1068.3  8151.6298
1068.25  7997.8616
1068.2  8120.6773
1068.15  8070.4892
1068.1  8123.8241
1068.05  8166.4901
1068  8476.6953

# Cycle: 0, Curve: 0, Scan: 4
#
# Acquisition Date:             02/01/24 17:50:20 UTC+1
# ColumnLabels:                 energy counts/s
#
1080  8806.0087
1079.95  8587.8042
1079.9  8475.2653
1079.85  7985.6714
1079.8  7833.6255
1079.75  7807.0492
1079.7  8530.3832
1079.65  8076.0888
1079.6  7878.7159
1079.55  7917.799
1079.5  8345.6558
1079.45  8811.9115
1079.4  8250.9187
1079.35  8410.1555
1079.3  8564.3353
1079.25  8182.8617
1079.2  8016.5736
1079.15  7906.5001
1079.1  8237.4194
1079.05  7999.9482
1079  8279.8677
1078.95  8318.0034
1078.9  8250.245
1078.85  8670.7747
1078.8  8601.5442
1078.75  8559.4351
1078.7  8741.8238
1078.65  8821.1675
1078.6  8576.7036
1078.55  8087.2338
1078.5  8264.9215
1078.45  8144.4414
1078.4  7977.4499
1078.35  8072.3437
1078.3  8099.6411
1078.25  7772.0449
1078.2  7935.0251
1078.15  8071.3763
1078.1  8140.4489
1078.05  8167.555
1078  8555.5923
1077.95  8252.4424
1077.9  8543.4398
1077.85  8390.6084
1077.8  8626.8248
1077.75  9096.6305
1077.7  8312.1788
1077.65  8289.8283
1077.6  8188.6382
1077.55  8143.5192
1077.5  8167.1375
1077.45  7745.5205
1077.4  7743.8915
1077.35  7883.2689
1077.3  7921.0804
1077.25  8353.2132
1077.2  8475.1839
1077.15  7827.3347
1077.1  8081.8678
1077.05  8034.878
1077  8021.8902
1076.95  7869.0655
1076.9  8080.5887
1076.85  8207.7325
1076.8  8510.1345
1076.75  8394.1355
1076.7  8046.2885
1076.65  8171.1123
1076.6  7856.6219
1076.55  7894.7926
1076.5  7879.8765
1076.45  8478.3442
1076.4  8087.2221
1076.35  7893.4546
1076.3  8174.6798
1076.25  8135.2532
1076.2  8239.8971
1076.15  8057.0345
1076.1  8023.5922
1076.05  8189.4636
1076  8399.8955
1075.95  8175.4225
1075.9  7930.8161
1075.85  7989.408
1075.8  8139.8331
1075.75  8337.7175
1075.7  8102.5481
1075.65  7878.8962
1075.6  7649.9596
1075.55  8167.9184
1075.5  8142.8964
1075.45  8094.5149
1075.4  8147.2605
1075.35  8475.2529
1075.3  8181.7408
1075.25  8226.2843
1075.2  8207.1366
1075.15  8052.6276
1075.1  8295.0664
1075.05  8361.5479
1075  7930.708
1074.95  7906.9088
1074.9  8074.7461
1074.85  7866.1747
1074.8  8336.0782
1074.75  8177.0428
1074.7  7948.6444
1074.65  8720.3667
1074.6  8256.4128
1074.55  7838.6711
1074.5  7912.4246
1074.45  7787.5305
1074.4  8026.5483
1074.35  8674.0423
1074.3  8640.8484
1074.25  8405.6502
1074.2  8385.6765
1074.15  8092.2058
1074.1  8279.313
1074.05  8412.9908
1074  7912.7116
1073.95  8282.6718
1073.9  8654.1467
1073.85  8250.7575
1073.8  8429.6298
1073.75  8796.9368
1073.7  8718.4496
1073.65  8429.6334
1073.6  8697.5593
1073.55  8759.6647
1073.5  8532.0739
1073.45  8551.7452
1073.4  8469.2584
1073.35  9003.1906
1073.3  8963.7333
1073.25  8752.4947
1073.2  8673.7436
1073.15  8979.846
1073.1  8809.8914
1073.05  8424.7818
1073  8527.9978
1072.95  8570.2353
1072.9  8618.8331
1072.85  8649.9524
1072.8  8739.7582
1072.75  8697.4088
1072.7  8304.5677
1072.65  8572.5014
1072.6  8674.6325
1072.55  8601.9227
1072.5  8448.8451
1072.45  8787.7822
1072.4  8338.6253
1072.35  8987.5268
1072.3  8728.3055
1072.25  8254.4682
1072.2  8162.4037
1072.15  7825.4452
1072.1  7964.1335
1072.05  8111.9155
1072  8433.0047
1071.95  8155.9993
1071.9  8201.8141
1071.85  8210.3182
1071.8  8305.9138
1071.75  8409.3668
1071.7  8660.0095
1071.65  8273.8282
1071.6  8007.587
1071.55  8314.932
1071.5  8393.0469
1071.45  8339.3649
1071.4  8155.7299
1071.35  7980.2364
1071.3  8698.9277
1071.25  8078.7599
1071.2  8136.0485
1071.15  8365.7459
1071.1  8297.6287
1071.05  7953.8561
1071  8063.8293
1070.95  8122.0666
1070.9  8015.6678
1070.85  8521.4785
1070.8  8427.9325
1070.75  8082.3715
1070.7  7993.221
1070.65  8173.6457
1070.6  8330.3565
1070.55  8081.3834
1070.5  7865.4246
1070.45  7716.8733
1070.4  8325.7062
1070.35  8483.3015
1070.3  8447.4235
1070.25  8188.8382
1070.2  7979.3408
1070.15  8326.7222
1070.1  8494.1308
1070.05  7872.3453
1070  8339.9072
1069.95  8225.052
1069.9  8377.1733
1069.85  8248.2569
1069.8  8092.5625
1069.75  7870.1262
1069.7  8200.6104
1069.65  8320.107
1069.6  8290.1226
1069.55  8681.4319
1069.5  8236.7768
1069.45  7924.4306
1069.4  8165.356
1069.35  8044.7383
1069.3  7923.6239
1069.25  7929.3704
1069.2  8291.2573
1069.15  8383.3751
1069.1  8413.1226
1069.05  8068.3579
1069  8113.7052
1068.95  8565.733
1068.9  8079.2756
1068.85  8171.9823
1068.8  8045.227
1068.75  8501.5032
1068.7  7912.3028
1068.65  8036.329
1068.6  8229.281
1068.55  8260.0839
1068.5  8143.8328
1068.45  8423.1961
1068.4  8218.5777
1068.35  7752.0602
1068.3  8084.106
1068.25  8134.9232
1068.2  8503.7812
1068.15  8654.816
1068.1  8540.8508
1068.05  8024.5007
1068  7968.579

# Cycle: 0, Curve: 0, Scan: 5
#
# Acquisition Date:             02/01/24 17:50:58 UTC+1
# ColumnLabels:                 energy counts/s
#
1080  8338.783
1079.95  8427.5222
1079.9  8100.3294
1079.85  7969.4705
1079.8  8310.21
1079.75  8275.5759
1079.7  7729.6663
1079.65  7844.6315
1079.6  8399.7088
1079.55  8434.2635
1079.5  8156.3731
1079.45  8301.0607
1079.4  8264.3693
1079.35  8509.0122
1079.3  8414.9815
1079.25  7874.2679
1079.2  7909.3498
1079.15  8281.7874
1079.1  8316.6421
1079.05  8428.8914
1079  8425.9429
1078.95  8034.9957
1078.9  8520.0058
1078.85  8418.1702
1078.8  7898.3159
1078.75  8258.264
1078.7  7958.4124
1078.65  8218.3661
1078.6  8086.6785
1078.55  8407.3537
1078.5  8306.6547
1078.45  7941.4164
1078.4  8152.1381
1078.35  8056.7565
1078.3  8389.6477
1078.25  8397.0887
1078.2  8120.0945
1078.15  8376.8991
1078.1  8126.117
1078.05  7945.1143
1078  8532.1882
1077.95  8262.319
1077.9  8382.1365
1077.85  8258.2623
1077.8  8362.7699
1077.75  8347.139
1077.7  8428.7652
1077.65  8859.9596
1077.6  8181.4349
1077.55  7949.6986
1077.5  8335.5311
1077.45  7985.5865
1077.4  8325.6434
1077.35  7825.4067
1077.3  7992.2727
1077.25  7962.4701
1077.2  7641.5912
1077.15  8360.6381
1077.1  8596.9357
1077.05  8070.9892
1077  8182.8488
1076.95  8040.8394
1076.9  8391.2219
1076.85  8307.5445
1076.8  8740.8678
1076.75  8207.3517
1076.7  7653.9152
1076.65  7987.7537
1076.6  8087.5498
1076.55  8030.4211
1076.5  8120.9758
1076.45  8456.9128
1076.4  7890.2061
1076.35  8240.9671
1076.3  8718.6025
1076.25  8143.0635
1076.2  8026.287
1076.15  8090.9452
1076.1  8395.1318
1076.05  8333.2926
1076  8468.2022
1075.95  8457.046
1075.9  8440.0504
1075.85  8414.9434
1075.8  7825.0713
1075.75  8210.4609
1075.7  8290.1653
1075.65  8098.5528
1075.6  8451.5299
1075.55  8669.3853
1075.5  8305.4211
1075.45  8190.704
1075.4  8473.3938
1075.35  8027.9684
1075.3  8364.0434
1075.25  8131.729
1075.2  8153.8867
1075.15  8260.083
1075.1  8436.9714
1075.05  8447.5363
1075  8232.9906
1074.95  8539.3499
1074.9  8318.5206
1074.85  8412.9296
1074.8  8156.3275
1074.75  7876.6064
1074.7  8376.7368
1074.65  8370.1519
1074.6  8053.7618
1074.55  8318.5508
1074.5  8564.5921
1074.45  8459.9182
1074.4  8351.2688
1074.35  7920.9912
1074.3  8121.3416
1074.25  8304.3102
1074.2  8400.1524
1074.15  8836.7811
1074.1  8257.5882
1074.05  8085.7759
1074  8123.7024
1073.95  8805.9484
1073.9  8284.7832
1073.85  8514.7521
1073.8  8069.2771
1073.75  8636.3154
1073.7  8662.4169
1073.65  8403.166
1073.6  9112.2254
1073.55  8727.211
1073.5  8633.0376
1073.45  8235.8257
1073.4  8531.7631
1073.35  8709.8452
1073.3  8912.2381
1073.25  8202.5083
1073.2  8812.6556
1073.15  8504.2677
1073.1  8303.8122
1073.05  7894.6697
1073  8272.3412
1072.95  8708.2473
1072.9  8940.7726
1072.85  8949.416
1072.8  8693.7879
1072.75  8479.8527
1072.7  8447.9155
1072.65  8610.8642
1072.6  8428.3361
1072.55  8539.2157
1072.5  8258.4404
1072.45  8822.8532
1072.4  9023.0075
1072.35  8869.1777
1072.3  8946.4645
1072.25  8787.6388
1072.2  8565.3459
1072.15  8621.0476
1072.1  9178.4299
1072.05  8511.1412
1072  8234.4748
1071.95  8627.0753
1071.9  8700.0891
1071.85  8218.1716
1071.8  8063.9782
1071.75  8236.1976
1071.7  8062.6214
1071.65  8649.9088
1071.6  8499.286
1071.55  8198.9689
1071.5  8640.2935
1071.45  8484.411
1071.4  8471.5608
1071.35  8493.6789
1071.3  8017.744
1071.25  7896.6258
1071.2  7791.6813
1071.15  8105.9644
1071.1  8259.5702
1071.05  8526.8844
1071  8103.0452
1070.95  8584.8743
1070.9  8375.0139
1070.85  8238.8675
1070.8  8274.6255
1070.75  8915.5241
1070.7  8428.9126
1070.65  8660.1014
1070.6  8480.4318
1070.55  7859.3283
1070.5  8623.3308
1070.45  8451.5609
1070.4  8622.2743
1070.35  7761.0353
1070.3  7936.974
1070.25  8223.5544
1070.2  8297.7963
1070.15  7896.3604
1070.1  7989.784
1070.05  8339.3562
1070  8158.711
1069.95  8474.8626
1069.9  8319.9709
1069.85  8068.9736
1069.8  8575.7662
1069.75  8480.4629
1069.7  8168.4245
1069.65  8285.9893
1069.6  8419.8678
1069.55  8589.3694
1069.5  8316.005
1069.45  8221.3921
1069.4  8177.5668
1069.35  8196.2149
1069.3  8178.6069
1069.25  7741.5716
1069.2  7921.4168
1069.15  8456.3879
1069.1  8178.1338
1069.05  7974.5625
1069  8257.2825
1068.95  8010.7308
1068.9  7945.6859
1068.85  8233.1638
1068.8  8419.3923
1068.75  8663.4918
1068.7  8279.29
1068.65  8289.3031
1068.6  7853.6869
1068.55  8021.2462
1068.5  8386.3562
1068.45  8651.4883
1068.4  8349.8192
1068.35  8206.4465
1068.3  8606.2615
1068.25  8229.0044
1068.2  8089.2867
1068.15  7753.368
1068.1  7851.1401
1068.05  8108.9685
1068  8499.93

# Cycle: 0, Curve: 0, Scan: 6
#
# Acquisition Date:             02/01/24 17:51:36 UTC+1
# ColumnLabels:                 energy counts/s
#
1080  8303.2322
1079.95  7961.3066
1079.9  8293.0399
1079.85  8398.498
1079.8  8395.8618
1079.75  8648.2361
1079.7  8292.5796
1079.65  7851.8089
1079.6  8048.6187
1079.55  8409.6001
1079.5  8177.9033
1079.45  8455.1164
1079.4  8379.6712
1079.35  8511.5928
1079.3  8325.0977
1079.25  8230.1169
1079.2  8195.5126
1079.15  8277.2038
1079.1  7971.0649
1079.05  8351.8234
1079  8659.4228
1078.95  8071.2018
1078.9  8068.3485
1078.85  7890.6818
1078.8  8253.9532
1078.75  8210.5612
1078.7  8307.613
1078.65  8535.6546
1078.6  8375.174
1078.55  7891.1579
1078.5  7856.3386
1078.45  8054.2821
1078.4  8433.5837
1078.35  7777.3955
1078.3  8220.1075
1078.25  7792.6707
1078.2  7756.6667
1078.15  8059.7985
1078.1  7907.0932
1078.05  8599.0801
1078  8282.0928
1077.95  8111.0173
1077.9  8100.3627
1077.85  8039.7864
1077.8  8162.5511
1077.75  8406.8887
1077.7  8394.708
1077.65  8322.1235
1077.6  7944.0886
1077.55  8280.3712
1077.5  8472.1088
1077.45  8458.8949
1077.4  8245.1384
1077.35  8100.3704
1077.3  8671.0281
1077.25  8260.5127
1077.2  8073.7105
1077.15  7622.9157
1077.1  7942.0994
1077.05  8293.4506
1077  8607.3009
1076.95  8116.8065
1076.9  7820.9403
1076.85  7490.3971
1076.8  8308.7411
1076.75  8098.3479
1076.7  8096.4223
1076.65  8013.6806
1076.6  8528.2442
1076.55  8255.9209
1076.5  8018.1165
1076.45  8274.1679
1076.4  8410.2003
1076.35  8430.5531
1076.3  8121.7672
1076.25  7988.6001
1076.2  7896.8998
1076.15  8447.2243
1076.1  8663.6559
1076.05  8512.2675
1076  8069.1547
1075.95  8870.1786
1075.9  8532.7189
1075.85  8183.3235
1075.8  8045.5883
1075.75  8549.525
1075.7  8605.882
1075.65  8699.3
1075.6  8380.7158
1075.55  8114.2107
1075.5  8292.58
1075.45  8347.149
1075.4  8507.4096
1075.35  8081.5085
1075.3  8262.054
1075.25  8494.3922
1075.2  7986.1439
1075.15  7944.5353
1075.1  8525.9303
1075.05  8207.6241
1075  8227.894
1074.95  7882.8776
1074.9  7708.2534
1074.85  7977.9662
1074.8  8387.2216
1074.75  7972.6366
1074.7  7401.9894
1074.65  7808.4077
1074.6  8465.5417
1074.55  8646.2015
1074.5  8839.2945
1074.45  8114.45
1074.4  8661.8287
1074.35  8521.7738
1074.3  8539.9945
1074.25  8293.8706
1074.2  8503.7019
1074.15  8686.2305
1074.1  8509.9698
1074.05  8550.6654
1074  8698.7696
1073.95  8238.7544
1073.9  8512.6519
1073.85  8164.734
1073.8  8642.3347
1073.75  8571.4259
1073.7  8414.4379
1073.65  8634.7376
1073.6  9045.2631
1073.55  8799.9259
1073.5  8406.3239
1073.45  8450.9155
1073.4  8951.1548
1073.35  8900.9343
1073.3  8486.7014
1073.25  8610.2378
1073.2  8588.7395
1073.15  8258.3568
1073.1  7899.1463
1073.05  8450.7841
1073  8250.4145
1072.95  8386.7902
1072.9  8687.0868
1072.85  8408.5206
1072.8  8798.5915
1072.75  8694.4941
1072.7  8345.9454
1072.65  8560.183
1072.6  8477.2848
1072.55  8730.745
1072.5  8372.7182
1072.45  8409.8952
1072.4  8645.8951
1072.35  8398.2563
1072.3  8564.2278
1072.25  8478.572
1072.2  8566.0717
1072.15  8184.2737
1072.1  8962.9893
1072.05  9139.1581
1072  8395.9363
1071.95  8188.3324
1071.9  8528.2452
1071.85  8573.4826
1071.8  8925.0079
1071.75  8686.9555
1071.7  8602.0853
1071.65  8460.6816
1071.6  8656.1262
1071.55  8066.7918
1071.5  7984.683
1071.45  8194.7125
1071.4  8250.3604
1071.35  7832.5683
1071.3  8348.8389
1071.25  8557.1991
1071.2  8601.3917
1071.15  8150.2106
1071.1  8221.6557
1071.05  8109.2215
1071  8219.4255
1070.95  8031.3235
1070.9  8287.1675
1070.85  8227.2919
1070.8  8352.4388
1070.75  8402.4029
1070.7  8323.9885
1070.65  8528.5455
1070.6  8492.1463
1070.55  8909.8811
1070.5  8330.7556
1070.45  7711.6828
1070.4  8097.3341
1070.35  8385.8085
1070.3  8481.0305
1070.25  8667.0318
1070.2  8570.6299
1070.15  8485.2869
1070.1  8321.4021
1070.05  8017.5689
1070  7918.845
1069.95  8391.3953
1069.9  8375.6049
1069.85  7770.6957
1069.8  8120.0532
1069.75  8477.1861
1069.7  8367.7432
1069.65  7721.8899
1069.6  8808.3787
1069.55  8537.2311
1069.5  8431.2453
1069.45  8344.333
1069.4  7811.8731
1069.35  7795.0663
1069.3  8152.2423
1069.25  8006.1312
1069.2  8490.4037
1069.15  8292.1085
1069.1  8344.2057
1069.05  8490.9235
1069  8414.5529
1068.95  8155.3825
1068.9  8014.4847
1068.85  8378.2548
1068.8  8497.2185
1068.75  8189.5575
1068.7  8172.4318
1068.65  7771.0791
1068.6  7831.988
1068.55  8029.3672
1068.5  8467.8792
1068.45  8731.832
1068.4  8456.3781
1068.35  8030.1825
1068.3  7947.3746
1068.25  8251.0161
1068.2  8159.398
1068.15  8041.5714
1068.1  8039.8599
1068.05  8960.7603
1068  8712.1818

# Cycle: 0, Curve: 0, Scan: 7
#
# Acquisition Date:             02/01/24 17:52:15 UTC+1
# ColumnLabels:                 energy counts/s
#
1080  8360.9001
1079.95  8554.13
1079.9  8463.1273
1079.85  8042.4451
1079.8  8560.1099
1079.75  8159.7739
1079.7  8313.3674
1079.65  8109.3279
1079.6  8505.0276
1079.55  8207.2089
1079.5  8304.7751
1079.45  8270.8146
1079.4  8392.7682
1079.35  9002.6737
1079.3  8612.5554
1079.25  8297.967
1079.2  7842.0347
1079.15  8374.1995
1079.1  8404.8501
1079.05  8573.5765
1079  8048.5942
1078.95  8141.9833
1078.9  8299.057
1078.85  8132.0851
1078.8  8231.3249
1078.75  8312.8531
1078.7  8360.144
1078.65  8311.6451
1078.6  8114.9281
1078.55  8121.1088
1078.5  7867.6191
1078.45  8241.9096
1078.4  7941.1982
1078.35  8003.1978
1078.3  7997.9446
1078.25  8426.7418
1078.2  8777.6974
1078.15  7628.1838
1078.1  7791.2261
1078.05  8388.5834
1078  8696.0594
1077.95  8565.2443
1077.9  8139.3927
1077.85  7882.0808
1077.8  7906.4063
1077.75  8244.8756
1077.7  7990.6606
1077.65  8798.5837
1077.6  8627.6094
1077.55  8837.4911
1077.5  8380.7286
1077.45  8213.7128
1077.4  8651.4851
1077.35  8202.6315
1077.3  8157.2876
1077.25  8185.4898
1077.2  8666.5111
1077.15  8481.1903
1077.1  8079.055
1077.05  7923.6663
1077  8191.7948
1076.95  8286.5942
1076.9  8448.5932
1076.85  8593.6108
1076.8  8603.7485
1076.75  8630.4383
1076.7  8353.4639
1076.65  8518.4942
1076.6  8401.0584
1076.55  8078.9066
1076.5  8202.9258
1076.45  8601.5373
1076.4  8536.6547
1076.35  8479.5353
1076.3  8723.9236
1076.25  8269.2629
1076.2  8576.109
1076.15  8672.1458
1076.1  8213.637
1076.05  8676.9907
1076  8637.8575
1075.95  8173.7912
1075.9  8141.5452
1075.85  7978.397
1075.8  7905.877
1075.75  8420.1877
1075.7  8285.1299
1075.65  8203.7008
1075.6  8227.3066
1075.55  8497.2012
1075.5  8546.1592
1075.45  8124.0909
1075.4  8211.2816
1075.35  7569.4933
1075.3  8015.7292
1075.25  8302.4697
1075.2  8248.5882
1075.15  8591.679
1075.1  8278.3256
1075.05  7929.2553
1075  8162.424
1074.95  8145.813
1074.9  7991.8567
1074.85  8221.4889
1074.8  8316.2557
1074.75  7976.2054
1074.7  8102.9742
1074.65  8148.7704
1074.6  8269.1284
1074.55  8410.006
1074.5  8121.6445
1074.45  8334.0914
1074.4  8263.5763
1074.35  8223.8055
1074.3  8520.3996
1074.25  8252.4715
1074.2  8488.306
1074.15  8432.729
1074.1  8196.7754
1074.05  8760.34
1074  8676.9708
1073.95  8619.7569
1073.9  8302.5172
1073.85  8134.1927
1073.8  8309.8742
1073.75  8550.8591
1073.7  8627.7477
1073.65  8430.004
1073.6  8335.0809
1073.55  8464.2638
1073.5  8608.8175
1073.45  8358.7099
1073.4  8506.7506
1073.35  8119.9011
1073.3  8192.0424
1073.25  8445.4471
1073.2  8650.4193
1073.15  8712.5584
1073.1  8899.2845
1073.05  8980.3343
1073  8946.5728
1072.95  8622.0115
1072.9  8479.4268
1072.85  8377.7677
1072.8  8489.1378
1072.75  8919.764
1072.7  8946.9319
1072.65  8879.3538
1072.6  9036.9188
1072.55  8401.5664
1072.5  8634.5903
1072.45  8431.8939
1072.4  8182.8302
1072.35  8423.544
1072.3  8779.6757
1072.25  8260.8674
1072.2  8139.3408
1072.15  8396.7639
1072.1  8431.5756
1072.05  8323.1249
1072  8551.1348
1071.95  8656.8267
1071.9  8533.7712
1071.85  8288.4112
1071.8  8042.4278
1071.75  8584.095
1071.7  8226.0872
1071.65  8478.9712
1071.6  8058.4851
1071.55  7984.0887
1071.5  8071.8273
1071.45  8150.153
1071.4  8212.0601
1071.35  8108.8839
1071.3  8350.5125
1071.25  8403.3216
1071.2  8194.7367
1071.15  8346.1335
1071.1  8497.5976
1071.05  8169.0931
1071  8594.8622
1070.95  8412.0317
1070.9  8305.1171
1070.85  8136.1077
1070.8  8132.725
1070.75  8345.7325
1070.7  8762.9557
1070.65  8207.2287
1070.6  7733.7324
1070.55  8336.0733
1070.5  8526.5181
1070.45  8068.1082
1070.4  8172.5326
1070.35  8424.1095
1070.3  8509.1703
1070.25  8374.2991
1070.2  8332.4171
1070.15  8332.419
1070.1  8227.3367
1070.05  8095.4503
1070  8316.2102
1069.95  8309.163
1069.9  8410.3298
1069.85  8038.5971
1069.8  7915.8023
1069.75  7931.7824
1069.7  8040.0972
1069.65  8322.3428
1069.6  8769.0945
1069.55  8363.1463
1069.5  7811.1746
1069.45  7899.4543
1069.4  8278.7428
1069.35  8067.0515
1069.3  8153.0969
1069.25  8436.1377
1069.2  8101.4929
1069.15  7922.2573
1069.1  7785.634
1069.05  7954.8443
1069  7968.7039
1068.95  8517.1096
1068.9  8566.9698
1068.85  8245.2944
1068.8  7897.2116
1068.75  8010.5592
1068.7  7840.7899
1068.65  8171.0287
1068.6  8517.1086
1068.55  8433.5019
1068.5  8097.1852
1068.45  8081.7259
1068.4  8475.6628
1068.35  8013.3954
1068.3  8086.2081
1068.25  8195.6299
1068.2  8109.7366
1068.15  8404.6187
1068.1  7857.3359
1068.05  7411.8647
1068  8071.4417

# Cycle: 0, Curve: 0, Scan: 8
#
# Acquisition Date:             02/01/24 17:52:53 UTC+1
# ColumnLabels:                 energy counts/s
#
1080  7555.3702
1079.95  7597.5703
1079.9  7611.6976
1079.85  8296.352
1079.8  8420.094
1079.75  8304.063
1079.7  7754.6415
1079.65  8149.3149
1079.6  8381.7947
1079.55  8191.6691
1079.5  8205.4945
1079.45  8065.4535
1079.4  8045.9865
1079.35  8167.554
1079.3  8516.0972
1079.25  8130.5793
1079.2  8052.4524
1079.15  8125.9828
1079.1  8728.3284
1079.05  8189.7203
1079  8572.9421
1078.95  8732.3417
1078.9  8929.6762
1078.85  8326.8605
1078.8  8099.5317
1078.75  8261.0937
1078.7  7847.6185
1078.65  7860.8947
1078.6  8158.7396
1078.55  8420.5518
1078.5  8153.366
1078.45  8158.9876
1078.4  7915.2585
1078.35  8132.0862
1078.3  7681.506
1078.25  8017.0055
1078.2  8142.3956
1078.15  8415.147
1078.1  7907.4307
1078.05  8017.4748
1078  8260.6632
1077.95  7930.3289
1077.9  8433.7125
1077.85  8339.4802
1077.8  8405.9576
1077.75  8116.9809
1077.7  8218.3189
1077.65  8097.7891
1077.6  8199.0904
1077.55  7948.2715
1077.5  7945.309
1077.45  8384.7531
1077.4  8053.4535
1077.35  8244.1509
1077.3  8761.8593
1077.25  7932.4841
1077.2  8284.4507
1077.15  8333.323
1077.1  8172.725
1077.05  7912.0811
1077  8279.8067
1076.95  8559.708
1076.9  8099.508
1076.85  7903.5113
1076.8  7796.8119
1076.75  7964.4392
1076.7  8358.4149
1076.65  7746.2939
1076.6  7705.0776
1076.55  7900.2909
1076.5  7701.5208
1076.45  7453.1215
1076.4  7750.9652
1076.35  7986.9682
1076.3  8105.7443
1076.25  8501.9613
1076.2  8287.6872
1076.15  8418.4563
1076.1  8275.376
1076.05  8047.4359
1076  8104.8348
1075.95  8536.9411
1075.9  8428.7152
1075.85  8259.0309
1075.8  8052.4659
1075.75  8121.8025
1075.7  7886.4271
1075.65  8236.661
1075.6  8372.0049
1075.55  8179.6843
1075.5  7973.163
1075.45  8511.3902
1075.4  8014.6658
1075.35  7926.4441
1075.3  8746.596
1075.25  8031.2623
1075.2  8015.306
1075.15  7905.5677
1075.1  8038.6816
1075.05  8420.9576
1075  8088.9742
1074.95  8659.4649
1074.9  8283.4389
1074.85  7784.7479
1074.8  8248.9749
1074.75  8888.0784
1074.7  8261.2617
1074.65  8430.8789
1074.6  8264.254
1074.55  7838.7941
1074.5  7806.3469
1074.45  8350.4903
1074.4  8436.5249
1074.35  8504.0887
1074.3  8621.3315
1074.25  8241.194
1074.2  7882.4899
1074.15  8126.5473
1074.1  8689.8702
1074.05  8316.4038
1074  7943.9682
1073.95  8468.408
1073.9  8391.7141
1073.85  8173.2408
1073.8  8167.9436
1073.75  8041.1144
1073.7  8443.2957
1073.65  9133.412
1073.6  8889.7723
1073.55  8419.2813
1073.5  8611.0267
1073.45  8603.7513
1073.4  9069.2344
1073.35  8957.4595
1073.3  8973.3555
1073.25  8877.3848
1073.2  8744.2429
1073.15  8764.2596
1073.1  8771.8405
1073.05  8729.5699
1073  8512.3884
1072.95  8950.7693
1072.9  8514.89
1072.85  8368.0789
1072.8  8645.71
1072.75  8411.281
1072.7  8327.2416
1072.65  8811.8824
1072.6  8642.4302
1072.55  8433.0886
1072.5  8525.2833
1072.45  8774.5245
1072.4  8731.6476
1072.35  8758.941
1072.3  8618.3607
1072.25  8332.1632
1072.2  8681.3023
1072.15  8507.4782
1072.1  8651.362
1072.05  8852.5849
1072  8505.0017
1071.95  8770.7859
1071.9  8578.6533
1071.85  8309.9509
1071.8  8077.25
1071.75  8356.3247
1071.7  8634.5409
1071.65  8558.5747
1071.6  8406.9067
1071.55  8390.7898
1071.5  8079.9585
1071.45  8457.1992
1071.4  8305.8177
1071.35  8069.284
1071.3  8288.5259
1071.25  8160.1073
1071.2  8010.5624
1071.15  8271.8284
1071.1  8365.8642
1071.05  8186.398
1071  7866.1158
1070.95  7789.7938
1070.9  8337.7813
1070.85  8503.353
1070.8  8216.4529
1070.75  8159.0901
1070.7  8358.65
1070.65  8310.3806
1070.6  7992.9731
1070.55  7878.0299
1070.5  8236.4805
1070.45  8396.7489
1070.4  8445.0919
1070.35  8394.2264
1070.3  8019.2559
1070.25  7672.2948
1070.2  8089.8172
1070.15  8344.8665
1070.1  8610.0748
1070.05  8232.1299
1070  8083.6943
1069.95  8059.693
1069.9  8137.9758
1069.85  8000.0469
1069.8  8290.787
1069.75  8021.7747
1069.7  7553.5102
1069.65  8012.7437
1069.6  8133.6791
1069.55  8096.0539
1069.5  8145.5056
1069.45  8264.8224
1069.4  8106.4133
1069.35  7766.9596
1069.3  8149.8583
1069.25  8197.229
1069.2  8360.0193
1069.15  8106.9306
1069.1  8212.133
1069.05  8330.1741
1069  7888.7548
1068.95  7793.1145
1068.9  8245.268
1068.85  8245.8224
1068.8  8235.5556
1068.75  8408.4949
1068.7  8035.2426
1068.65  8556.6176
1068.6  8627.8604
1068.55  8247.4759
1068.5  8155.8396
1068.45  8136.0462
1068.4  7833.1877
1068.35  7982.546
1068.3  8061.0232
1068.25  8430.9008
1068.2  8390.1765
1068.15  8039.9748
1068.1  7960.8986
1068.05  7918.069
1068  8077.1309

# Cycle: 0, Curve: 0, Scan: 9
#
# Acquisition Date:             02/01/24 17:53:32 UTC+1
# ColumnLabels:                 energy counts/s
#
1080  8204.0561
1079.95  8645.5188
1079.9  8462.2145
1079.85  8223.8576
1079.8  7718.1707
1079.75  8209.4905
1079.7  8401.6719
1079.65  7970.4161
1079.6  7971.4572
1079.55  8196.2477
1079.5  8546.4479
1079.45  8162.4238
1079.4  8030.3273
1079.35  8125.8743
1079.3  8083.2055
1079.25  8118.5313
1079.2  8192.1784
1079.15  8342.6417
1079.1  8571.0046
1079.05  8470.6232
1079  8394.4216
1078.95  7864.1013
1078.9  8210.486
1078.85  8017.2928
1078.8  8116.4802
1078.75  7995.8629
1078.7  8359.2884
1078.65  8257.4371
1078.6  8283.3
1078.55  8016.3326
1078.5  8128.0025
1078.45  8118.9719
1078.4  8350.6309
1078.35  8530.1948
1078.3  8323.4483
1078.25  7919.948
1078.2  8206.1465
1078.15  8830.6049
1078.1  8395.2398
1078.05  8129.2965
1078  8264.4992
1077.95  8724.6489
1077.9  8169.2938
1077.85  8175.9065
1077.8  8311.3554
1077.75  8457.7435
1077.7  8411.7296
1077.65  8443.8075
1077.6  8273.1045
1077.55  8238.7211
1077.5  7851.5391
1077.45  8107.3305
1077.4  8571.4555
1077.35  8263.1399
1077.3  7811.8006
1077.25  8017.7479
1077.2  8164.0507
1077.15  7551.3665
1077.1  7681.2048
1077.05  8292.8092
1077  8429.9003
1076.95  8300.5905
1076.9  8288.2397
1076.85  8007.9135
1076.8  8061.5353
1076.75  7693.8197
1076.7  8185.9828
1076.65  7862.6132
1076.6  8327.2486
1076.55  8442.1297
1076.5  7932.4363
1076.45  7987.075
1076.4  8338.3242
1076.35  8666.9265
1076.3  8247.4876
1076.25  7716.4714
1076.2  7965.1243
1076.15  8380.0127
1076.1  8112.8696
1076.05  8315.7773
1076  8328.2848
1075.95  8314.2803
1075.9  8456.5803
1075.85  8305.4798
1075.8  8105.0875
1075.75  8114.7742
1075.7  8349.0672
1075.65  8500.9104
1075.6  8406.6018
1075.55  8543.5059
1075.5  8469.953
1075.45  8246.669
1075.4  8168.9694
1075.35  7816.877
1075.3  8076.0225
1075.25  8156.4946
1075.2  8334.7172
1075.15  8154.9946
1075.1  7509.7166
1075.05  8080.0054
1075  8481.119
1074.95  8134.6271
1074.9  7690.6038
1074.85  8401.8033
1074.8  8418.1859
1074.75  8378.1705
1074.7  8442.0576
1074.65  8230.9908
1074.6  8538.3185
1074.55  8469.7537
1074.5  8303.3682
1074.45  8018.7356
1074.4  8299.9408
1074.35  8454.909
1074.3  7959.6904
1074.25  8291.2265
1074.2  8240.2432
1074.15  8301.6889
1074.1  7993.9827
1074.05  8538.6457
1074  9152.92
1073.95  9202.5517
1073.9  8595.3911
1073.85  8151.8754
1073.8  8582.0936
1073.75  8823.0703
1073.7  8507.6946
1073.65  8642.3154
1073.6  8743.6197
1073.55  8891.6379
1073.5  8740.9309
1073.45  8780.0613
1073.4  8658.517
1073.35  8494.6092
1073.3  8497.1329
1073.25  8998.0904
1073.2  8836.3392
1073.15  8539.0123
1073.1  8635.5241
1073.05  8687.706
1073  8464.931
1072.95  8740.2365
1072.9  8949.4303
1072.85  8851.264
1072.8  8470.5455
1072.75  8578.8691
1072.7  8568.9505
1072.65  8257.4285
1072.6  8224.7007
1072.55  8713.1503
1072.5  8554.7126
1072.45  7952.7525
1072.4  8715.0218
1072.35  9562.9975
1072.3  9173.7807
1072.25  9181.665
1072.2  8179.5738
1072.15  8421.4896
1072.1  8797.5337
1072.05  8754.9988
1072  8422.7341
1071.95  8833.4473
1071.9  8427.6647
1071.85  8767.0767
1071.8  8232.9107
1071.75  8671.88
1071.7  8630.7861
1071.65  8225.6927
1071.6  7931.7917
1071.55  8354.9925
1071.5  8411.2251
1071.45  8116.1636
1071.4  8374.4117
1071.35  8316.5495
1071.3  8103.5965
1071.25  8263.2977
1071.2  8356.195
1071.15  8503.3178
1071.1  8244.7075
1071.05  7608.9606
1071  8275.3364
1070.95  8314.3368
1070.9  8117.9868
1070.85  8377.11
1070.8  8661.3667
1070.75  8138.7877
1070.7  7935.4325
1070.65  8008.9172
1070.6  7953.6253
1070.55  8022.8571
1070.5  7796.5888
1070.45  7755.6492
1070.4  7703.7724
1070.35  7888.0564
1070.3  8338.3866
1070.25  8156.5694
1070.2  8508.0316
1070.15  8063.197
1070.1  7989.2855
1070.05  8027.5756
1070  8128.4314
1069.95  7384.6841
1069.9  8087.0773
1069.85  8524.6943
1069.8  8172.8784
1069.75  7930.4101
1069.7  8109.7996
1069.65  8171.2197
1069.6  8499.4324
1069.55  8304.3503
1069.5  8142.9513
1069.45  8100.2754
1069.4  8576.2134
1069.35  8347.206
1069.3  8643.5817
1069.25  8181.3513
1069.2  8143.5861
1069.15  7741.1208
1069.1  7780.5847
1069.05  8007.1137
1069  7787.5522
1068.95  8437.0869
1068.9  7932.2797
1068.85  7919.0454
1068.8  8287.0698
1068.75  8203.8721
1068.7  8323.4064
1068.65  8240.5139
1068.6  8103.3923
1068.55  7893.0981
1068.5  8013.1074
1068.45  8334.9371
1068.4  8162.9352
1068.35  8042.3088
1068.3  8259.672
1068.25  8349.5485
1068.2  8185.2978
1068.15  7878.7006
1068.1  7898.757
1068.05  8642.2704
1068  8444.149

# Cycle: 0, Curve: 0, Scan: 10
#
# Acquisition Date:             02/01/24 17:54:10 UTC+1
# ColumnLabels:                 energy counts/s
#
1080  7836.7865
1079.95  8184.5986
1079.9  8123.523
1079.85  8050.5795
1079.8  8530.1471
1079.75  8251.1706
1079.7  8191.249
1079.65  8017.0867
1079.6  8109.4625
1079.55  8487.1871
1079.5  8392.221
1079.45  8185.2553
1079.4  8740.3921
1079.35  8062.1304
1079.3  7968.5736
1079.25  8248.0108
1079.2  8228.6388
1079.15  8222.3059
1079.1  8933.4448
1079.05  8172.1875
1079  7947.2096
1078.95  8343.9914
1078.9  8216.4154
1078.85  8295.6696
1078.8  8261.2329
1078.75  8041.2382
1078.7  7892.122
1078.65  8258.2963
1078.6  8035.9864
1078.55  7785.0252
1078.5  7727.9794
1078.45  8538.2546
1078.4  7954.8774
1078.35  8131.5123
1078.3  7923.961
1078.25  8225.4641
1078.2  8128.2346
1078.15  8213.667
1078.1  7452.9062
1078.05  8146.4803
1078  8349.4958
1077.95  8058.39
1077.9  8235.1106
1077.85  8324.9632
1077.8  8103.8068
1077.75  8244.0808
1077.7  8027.6225
1077.65  7724.2941
1077.6  8061.9967
1077.55  8431.0661
1077.5  8145.0381
1077.45  8187.9566
1077.4  8372.2488
1077.35  8521.4964
1077.3  8141.4579
1077.25  8295.082
1077.2  8016.6035
1077.15  8278.6675
1077.1  8446.9307
1077.05  8380.6338
1077  8325.2991
1076.95  8172.6795
1076.9  7930.7759
1076.85  7619.6587
1076.8  7648.8045
1076.75  7857.8193
1076.7  7713.3703
1076.65  8045.8405
1076.6  8355.5654
1076.55  8550.5806
1076.5  8400.8851
1076.45  8199.118
1076.4  8468.8094
1076.35  8198.8405
1076.3  8251.1095
1076.25  8296.7668
1076.2  8119.6598
1076.15  8202.785
1076.1  8487.6482
1076.05  8059.7228
1076  8163.9342
1075.95  7819.7047
1075.9  8220.5626
1075.85  7794.527
1075.8  7865.2961
1075.75  8169.137
1075.7  8201.2107
1075.65  8163.5829
1075.6  7879.1316
1075.55  7868.2174
1075.5  8384.5618
1075.45  8390.3414
1075.4  7956.8815
1075.35  8264.9719
1075.3  8422.9981
1075.25  8040.6443
1075.2  7936.672
1075.15  8027.491
1075.1  7971.1002
1075.05  8093.5921
1075  7742.2602
1074.95  8220.771
1074.9  7643.1254
1074.85  8303.0877
1074.8  8020.3582
1074.75  8264.4954
1074.7  8356.444
1074.65  8373.2294
1074.6  8144.8802
1074.55  8461.8339
1074.5  8339.5527
1074.45  8760.7877
1074.4  8318.5715
1074.35  8174.5991
1074.3  8320.4796
1074.25  9110.6144
1074.2  8090.9374
1074.15  8052.1497
1074.1  8445.2494
1074.05  8364.1739
1074  8418.8187
1073.95  8402.5027
1073.9  8486.145
1073.85  8292.6354
1073.8  8522.4468
1073.75  8817.3059
1073.7  8400.7065
1073.65  8655.7754
1073.6  8315.8857
1073.55  8571.7893
1073.5  8852.7773
1073.45  8458.4331
1073.4  8476.7009
1073.35  8024.6208
1073.3  8256.2404
1073.25  8721.7133
1073.2  8523.5841
1073.15  8040.1081
1073.1  8607.267
1073.05  8523.7589
1073  8462.2484
1072.95  8671.5683
1072.9  8621.1887
1072.85  8569.1583
1072.8  8632.6178
1072.75  8655.9356
1072.7  8633.083
1072.65  8854.0095
1072.6  8975.7795
1072.55  8968.7834
1072.5  8957.4202
1072.45  8879.4428
1072.4  8480.928
1072.35  8510.7972
1072.3  8458.1463
1072.25  8499.6099
1072.2  8840.2326
1072.15  8888.6161
1072.1  9145.0449
1072.05  8754.1645
1072  8299.2465
1071.95  8311.3018
1071.9  8384.0059
1071.85  7678.2457
1071.8  8252.3612
1071.75  8595.4707
1071.7  8130.68
1071.65  8462.7934
1071.6  7856.3921
1071.55  8473.8204
1071.5  8136.9021
1071.45  8072.5474
1071.4  7907.7761
1071.35  8023.1641
1071.3  7970.7016
1071.25  8415.7718
1071.2  8424.6257
1071.15  8270.6897
1071.1  8278.874
1071.05  8282.7695
1071  7762.1296
1070.95  7624.4654
1070.9  7935.3322
1070.85  7864.6286
1070.8  8119.0526
1070.75  8276.9765
1070.7  8046.5092
1070.65  8199.3331
1070.6  8139.3377
1070.55  8502.6391
1070.5  7991.9632
1070.45  8223.1533
1070.4  7838.1317
1070.35  7769.4494
1070.3  7693.5245
1070.25  7963.6292
1070.2  8126.0773
1070.15  8096.5651
1070.1  7995.2321
1070.05  8246.0953
1070  7915.9584
1069.95  8170.1545
1069.9  8023.9437
1069.85  7937.9513
1069.8  7709.4902
1069.75  7912.8622
1069.7  7546.4169
1069.65  8161.8402
1069.6  8502.2549
1069.55  8136.3053
1069.5  8133.6628
1069.45  8074.8635
1069.4  7823.6805
1069.35  7998.9007
1069.3  8022.4738
1069.25  8199.3556
1069.2  7974.4376
1069.15  8268.1203
1069.1  7843.003
1069.05  8332.5655
1069  8345.3238
1068.95  8069.1791
1068.9  8247.7923
1068.85  8311.091
1068.8  8660.9921
1068.75  8435.8938
1068.7  8148.0154
1068.65  8098.8233
1068.6  8076.3816
1068.55  8098.7988
1068.5  8047.0126
1068.45  8100.4647
1068.4  7538.3567
1068.35  7883.5399
1068.3  8336.934
1068.25  8050.0865
1068.2  7868.1463
1068.15  7770.9491
1068.1  8544.209
1068.05  8332.6733
1068  8296.3543

# Cycle: 0, Curve: 0, Scan: 11
#
# Acquisition Date:             02/01/24 17:54:48 UTC+1
# ColumnLabels:                 energy counts/s
#
1080  7797.5589
1079.95  7880.8127
1079.9  8024.0491
1079.85  8279.532
1079.8  8095.4454
1079.75  8523.0308
1079.7  8255.7303
1079.65  8416.9654
1079.6  7662.6721
1079.55  8639.1961
1079.5  8226.3144
1079.45  8184.8951
1079.4  8279.1377
1079.35  8119.3179
1079.3  8084.9185
1079.25  8221.6195
1079.2  7772.919
1079.15  7985.4384
1079.1  8104.9877
1079.05  7820.5743
1079  8176.1348
1078.95  8454.0662
1078.9  8319.2564
1078.85  8171.5727
1078.8  8269.4694
1078.75  8137.5592
1078.7  8073.6077
1078.65  8105.9805
1078.6  8042.1589
1078.55  8321.5208
1078.5  7815.7146
1078.45  8424.3126
1078.4  8226.008
1078.35  8180.6462
1078.3  8175.5941
1078.25  8064.3894
1078.2  7809.077
1078.15  7766.0429
1078.1  8241.9069
1078.05  8238.4706
1078  8007.5589
1077.95  8571.0201
1077.9  8542.0106
1077.85  8688.9641
1077.8  8347.7547
1077.75  8290.6922
1077.7  8319.3265
1077.65  8431.6644
1077.6  8066.8857
1077.55  7812.3589
1077.5  8195.6399
1077.45  8694.9277
1077.4  8223.186
1077.35  7894.9883
1077.3  8219.1511
1077.25  8576.2115
1077.2  8122.045
1077.15  7769.8497
1077.1  8102.0474
1077.05  7860.1932
1077  8170.6782
1076.95  7656.2779
1076.9  8014.5034
1076.85  8226.0716
1076.8  8023.4578
1076.75  8236.8254
1076.7  8450.2544
1076.65  8452.4487
1076.6  8323.316
1076.55  7743.2816
1076.5  8045.9214
1076.45  8090.6712
1076.4  7986.4754
1076.35  8248.7213
1076.3  8230.6935
1076.25  8305.0656
1076.2  8148.2472
1076.15  7863.3826
1076.1  7781.5626
1076.05  8199.7787
1076  8186.2549
1075.95  8272.4175
1075.9  8317.0489
1075.85  8482.541
1075.8  9055.4256
1075.75  8935.8343
1075.7  8572.8019
1075.65  7852.4939
1075.6  7560.3779
1075.55  7962.4676
1075.5  8656.6732
1075.45  8471.4372
1075.4  8107.7102
1075.35  8310.7025
1075.3  8211.2376
1075.25  8204.5219
1075.2  8018.6273
1075.15  7715.3231
1075.1  8060.5971
1075.05  8510.6892
1075  8865.8081
1074.95  8184.3221
1074.9  7731.1816
1074.85  8142.0261
1074.8  8089.3133
1074.75  7947.8623
1074.7  8162.5392
1074.65  7751.8796
1074.6  8101.3627
1074.55  8103.3368
1074.5  7909.2044
1074.45  8349.4225
1074.4  8211.6848
1074.35  8242.2314
1074.3  8571.8818
1074.25  8377.2189
1074.2  8515.7422
1074.15  8042.2463
1074.1  8283.0429
1074.05  8092.746
1074  8152.2812
1073.95  8323.9415
1073.9  8208.7147
1073.85  8761.0484
1073.8  8789.4257
1073.75  8736.3424
1073.7  8239.7093
1073.65  8703.7376
1073.6  8426.2807
1073.55  8924.2453
1073.5  8680.2026
1073.45  8507.7135
1073.4  8397.3263
1073.35  8257.3226
1073.3  8215.2732
1073.25  8191.6136
1073.2  8678.0756
1073.15  8874.7497
1073.1  8219.0295
1073.05  8469.4532
1073  8639.536
1072.95  8231.0971
1072.9  8200.644
1072.85  8768.9151
1072.8  8685.3513
1072.75  8551.917
1072.7  8754.3263
1072.65  8609.4578
1072.6  8647.8211
1072.55  8632.4299
1072.5  8813.9253
1072.45  8920.8777
1072.4  8857.469
1072.35  8360.9019
1072.3  8481.5724
1072.25  8379.5847
1072.2  8406.6018
1072.15  8336.3358
1072.1  8386.4848
1072.05  8194.9241
1072  8663.0158
1071.95  8589.7052
1071.9  8516.3537
1071.85  8362.6512
1071.8  8562.2862
1071.75  8269.3669
1071.7  8425.0044
1071.65  8217.3402
1071.6  8524.6874
1071.55  8407.4373
1071.5  8415.5678
1071.45  8397.5774
1071.4  8340.2652
1071.35  8218.932
1071.3  7881.1866
1071.25  7999.6292
1071.2  8280.4137
1071.15  8526.6861
1071.1  8114.4109
1071.05  7821.9226
1071  8180.2171
1070.95  8206.2655
1070.9  7890.2971
1070.85  7921.8865
1070.8  8142.5973
1070.75  8033.5437
1070.7  8182.5076
1070.65  7742.9169
1070.6  8150.6369
1070.55  8182.4442
1070.5  7853.6982
1070.45  7764.4732
1070.4  8105.0083
1070.35  8717.898
1070.3  8152.2595
1070.25  7921.3076
1070.2  8468.3006
1070.15  8715.3747
1070.1  8148.1394
1070.05  7618.7926
1070  8007.6631
1069.95  8329.1515
1069.9  8191.8422
1069.85  8250.7251
1069.8  7949.1006
1069.75  7950.3674
1069.7  8477.4939
1069.65  8079.4609
1069.6  7953.8204
1069.55  7679.6494
1069.5  8163.0395
1069.45  8271.3233
1069.4  8152.164
1069.35  7887.8441
1069.3  8306.6782
1069.25  7506.6023
1069.2  8295.1408
1069.15  7926.3597
1069.1  8132.8421
1069.05  8111.6607
1069  8035.2048
1068.95  7775.7559
1068.9  8231.9007
1068.85  8116.311
1068.8  8480.041
1068.75  8668.6298
1068.7  8479.7499
1068.65  8187.6554
1068.6  8246.9549
1068.55  7916.664
1068.5  7889.9375
1068.45  8000.4942
1068.4  8383.9469
1068.35  8428.121
1068.3  8716.4911
1068.25  8171.1759
1068.2  7968.0544
1068.15  8336.5874
1068.1  7707.6717
1068.05  8100.3855
1068  7755.0942

# Cycle: 0, Curve: 0, Scan: 12
#
# Acquisition Date:             02/01/24 17:55:27 UTC+1
# ColumnLabels:                 energy counts/s
#
1080  8006.4903
1079.95  8489.8228
1079.9  8482.5144
1079.85  8294.0539
1079.8  8226.9144
1079.75  8399.1921
1079.7  8217.1655
1079.65  8025.7335
1079.6  8538.8431
1079.55  8021.9227
1079.5  8223.8014
1079.45  7974.5343
1079.4  8054.4236
1079.35  8274.9046
1079.3  8609.9675
1079.25  8110.5245
1079.2  8216.4004
1079.15  8403.2383
1079.1  8343.0836
1079.05  8027.9895
1079  8401.0102
1078.95  8194.4793
1078.9  8025.1737
1078.85  7857.8212
1078.8  8375.6647
1078.75  7842.9784
1078.7  8006.2745
1078.65  8504.2864
1078.6  8375.7041
1078.55  8270.6258
1078.5  8127.8946
1078.45  8486.4297
1078.4  8243.0484
1078.35  7979.8883
1078.3  8209.3638
1078.25  8158.8315
1078.2  7650.6814
1078.15  8070.9707
1078.1  8206.7451
1078.05  8278.6412
1078  8543.0841
1077.95  8298.1708
1077.9  7973.9668
1077.85  7701.7238
1077.8  7844.445
1077.75  8002.2007
1077.7  8551.2396
1077.65  8506.9733
1077.6  8286.0319
1077.55  8506.3064
1077.5  8438.1827
1077.45  7901.2806
1077.4  8185.0241
1077.35  8320.1296
1077.3  8287.0224
1077.25  8494.3567
1077.2  8283.1205
1077.15  7910.9381
1077.1  7807.0132
1077.05  7752.8695
1077  7766.5795
1076.95  8310.0834
1076.9  8400.0441
1076.85  8309.7026
1076.8  7863.5769
1076.75  8170.1455
1076.7  7714.141
1076.65  7756.6032
1076.6  8382.8099
1076.55  7978.0293
1076.5  7854.002
1076.45  8001.5138
1076.4  8170.954
1076.35  8338.1985
1076.3  8850.6327
1076.25  7996.1936
1076.2  7985.8963
1076.15  7824.3941
1076.1  7649.62
1076.05  7758.8581
1076  8186.5923
1075.95  8316.358
1075.9  8024.297
1075.85  8200.9637
1075.8  8273.9877
1075.75  7914.405
1075.7  8299.3105
1075.65  8296.3162
1075.6  8384.0939
1075.55  8251.4357
1075.5  8193.225
1075.45  8364.9627
1075.4  8084.6722
1075.35  8443.2413
1075.3  8415.6415
1075.25  8531.6888
1075.2  8119.1309
1075.15  8144.7942
1075.1  8220.5696
1075.05  8392.2169
1075  8368.2742
1074.95  8175.9097
1074.9  8155.9539
1074.85  7798.9386
1074.8  8506.2873
1074.75  8244.6966
1074.7  8321.4732
1074.65  8158.6586
1074.6  8287.2483
1074.55  7943.3303
1074.5  8247.0075
1074.45  8531.1765
1074.4  8588.5162
1074.35  8578.1487
1074.3  8340.5978
1074.25  8221.9435
1074.2  8479.9087
1074.15  8582.8128
1074.1  8096.9667
1074.05  8248.0764
1074  8140.3639
1073.95  8188.6281
1073.9  8828.559
1073.85  9038.2735
1073.8  8974.0879
1073.75  8271.3197
1073.7  8379.2815
1073.65  8664.7037
1073.6  8051.1179
1073.55  8300.6962
1073.5  8454.6119
1073.45  9080.6057
1073.4  8846.5463
1073.35  8719.4806
1073.3  8604.3386
1073.25  8387.0763
1073.2  8823.3254
1073.15  8795.4199
1073.1  8497.5263
1073.05  8506.8739
1073  8177.8457
1072.95  8735.4858
1072.9  8389.6136
1072.85  8359.2311
1072.8  8492.894
1072.75  8754.6987
1072.7  8686.2408
1072.65  8736.6874
1072.6  8862.6978
1072.55  8738.1094
1072.5  8918.0257
1072.45  9011.3435
1072.4  8243.1019
1072.35  8703.0436
1072.3  8496.2068
1072.25  8892.0945
1072.2  8578.833
1072.15  8821.5941
1072.1  8535.6224
1072.05  8267.1007
1072  8853.6601
1071.95  8581.4298
1071.9  8389.411
1071.85  8256.3221
1071.8  8815.1439
1071.75  8042.1673
1071.7  8266.3059
1071.65  8196.6487
1071.6  8371.7669
1071.55  8246.4434
1071.5  8361.4216
1071.45  8486.7353
1071.4  8341.5884
1071.35  8115.1482
1071.3  7951.2548
1071.25  8145.0273
1071.2  7819.7601
1071.15  8410.3632
1071.1  8387.4075
1071.05  8118.4994
1071  8329.6293
1070.95  8245.9815
1070.9  8301.1613
1070.85  8526.1132
1070.8  8379.1278
1070.75  8212.8063
1070.7  8091.6519
1070.65  8253.5715
1070.6  7995.4905
1070.55  8384.284
1070.5  8360.6642
1070.45  8254.0632
1070.4  8073.9651
1070.35  7907.1149
1070.3  7719.3836
1070.25  8109.297
1070.2  8195.2716
1070.15  8037.3925
1070.1  8071.9136
1070.05  8373.0556
1070  8296.5658
1069.95  8017.8337
1069.9  8248.8411
1069.85  8048.4448
1069.8  7733.4461
1069.75  7871.2282
1069.7  8273.2637
1069.65  7959.7949
1069.6  7963.665
1069.55  8234.2664
1069.5  7961.5162
1069.45  8363.3103
1069.4  8235.6151
1069.35  8144.8972
1069.3  8091.2687
1069.25  8123.0698
1069.2  8122.317
1069.15  8159.7078
1069.1  8375.0122
1069.05  8491.5576
1069  8507.1065
1068.95  8342.1267
1068.9  8363.7394
1068.85  8128.3781
1068.8  8205.2693
1068.75  7939.5572
1068.7  8067.9795
1068.65  8175.0438
1068.6  8132.7641
1068.55  8311.8089
1068.5  8185.0734
1068.45  8106.154
1068.4  7788.4333
1068.35  7807.2254
1068.3  8225.993
1068.25  8080.9986
1068.2  8166.6559
1068.15  8303.9823
1068.1  8858.4635
1068.05  8375.8186
1068  8111.3099

# Cycle: 0, Curve: 0, Scan: 13
#
# Acquisition Date:             02/01/24 17:56:05 UTC+1
# ColumnLabels:                 energy counts/s
#
1080  8226.9296
1079.95  8286.7991
1079.9  8723.7868
1079.85  8424.2788
1079.8  8160.4121
1079.75  8075.8556
1079.7  8152.4227
1079.65  8269.9512
1079.6  8370.6547
1079.55  8526.0386
1079.5  8307.2639
1079.45  7828.8468
1079.4  8022.9557
1079.35  7904.0332
1079.3  7822.5502
1079.25  7838.6415
1079.2  8025.6231
1079.15  8339.118
1079.1  8308.5142
1079.05  8082.2946
1079  8332.365
1078.95  8107.6521
1078.9  7594.5178
1078.85  8667.7229
1078.8  8500.9186
1078.75  8179.98
1078.7  8435.8335
1078.65  8278.4406
1078.6  7833.933
1078.55  8174.7451
1078.5  8427.9173
1078.45  8207.7861
1078.4  7806.6745
1078.35  7742.9018
1078.3  7780.5436
1078.25  8112.2026
1078.2  8449.4087
1078.15  8345.5115
1078.1  8136.0936
1078.05  8096.0494
1078  8124.9716
1077.95  7661.1752
1077.9  7967.5976
1077.85  8314.5691
1077.8  8379.8021
1077.75  8093.2322
1077.7  8083.9903
1077.65  8313.3982
1077.6  8267.8557
1077.55  8558.5983
1077.5  8253.2441
1077.45  8112.0217
1077.4  7767.0844
1077.35  8178.6029
1077.3  8302.1775
1077.25  8276.7802
1077.2  8065.8421
1077.15  7853.6599
1077.1  7960.1444
1077.05  8384.0932
1077  8254.2104
1076.95  8035.5865
1076.9  7995.686
1076.85  8313.6362
1076.8  8547.776
1076.75  7979.5371
1076.7  7925.7727
1076.65  8805.8238
1076.6  8241.632
1076.55  8304.1117
1076.5  8609.3089
1076.45  8222.2185
1076.4  7832.4146
1076.35  8182.7736
1076.3  7998.4442
1076.25  8216.0265
1076.2  8188.7091
1076.15  7827.6127
1076.1  8041.1199
1076.05  7816.038
1076  8007.2421
1075.95  7985.2516
1075.9  8059.0051
1075.85  8021.9021
1075.8  8255.4637
1075.75  7809.0151
1075.7  7947.2766
1075.65  8106.5488
1075.6  8456.0628
1075.55  8220.3038
1075.5  8328.9812
1075.45  8000.4571
1075.4  8095.2189
1075.35  8186.211
1075.3  8110.3177
1075.25  8295.1663
1075.2  8338.9198
1075.15  8027.1912
1075.1  7903.991
1075.05  8353.4666
1075  8024.5318
1074.95  8014.6814
1074.9  7966.2291
1074.85  8251.0065
1074.8  7830.9737
1074.75  8636.5492
1074.7  8358.3869
1074.65  8183.1506
1074.6  8134.4416
1074.55  7825.0922
1074.5  8170.3507
1074.45  8414.0371
1074.4  8266.8668
1074.35  7876.5397
1074.3  8474.2078
1074.25  8416.7907
1074.2  8731.7371
1074.15  8110.8627
1074.1  8558.2881
1074.05  8835.3196
1074  8789.0979
1073.95  8508.1332
1073.9  8649.2728
1073.85  8145.9249
1073.8  7876.0197
1073.75  8241.0444
1073.7  8663.2837
1073.65  8850.2866
1073.6  8869.1148
1073.55  8449.5715
1073.5  8299.1721
1073.45  8047.4498
1073.4  8477.5956
1073.35  8743.5307
1073.3  8424.7653
1073.25  8785.203
1073.2  8680.0093
1073.15  8682.4329
1073.1  8886.069
1073.05  8315.7117
1073  8462.8313
1072.95  8499.4127
1072.9  9294.751
1072.85  8650.2945
1072.8  8635.5655
1072.75  9198.6553
1072.7  9225.6605
1072.65  8483.3234
1072.6  8418.226
1072.55  8805.8468
1072.5  9052.8391
1072.45  9073.2328
1072.4  8660.302
1072.35  8369.398
1072.3  8719.1993
1072.25  8465.1442
1072.2  8453.1928
1072.15  8224.9587
1072.1  8193.0351
1072.05  8498.2375
1072  8143.8839
1071.95  8572.0188
1071.9  8424.1059
1071.85  8363.083
1071.8  8245.3633
1071.75  8456.6691
1071.7  8638.9262
1071.65  8383.6642
1071.6  8296.7236
1071.55  7918.8498
1071.5  7862.4659
1071.45  8724.6096
1071.4  8381.2903
1071.35  7858.0273
1071.3  8347.5729
1071.25  8505.2109
1071.2  8123.491
1071.15  8523.9561
1071.1  8214.0017
1071.05  8296.4221
1071  8102.3161
1070.95  7789.3434
1070.9  7990.0383
1070.85  7888.5392
1070.8  8008.5502
1070.75  8436.226
1070.7  8444.5096
1070.65  8146.2587
1070.6  7894.6145
1070.55  7535.0535
1070.5  8060.2907
1070.45  8216.9042
1070.4  8112.8405
1070.35  8534.2511
1070.3  8333.0104
1070.25  8224.9112
1070.2  8204.5131
1070.15  7878.5461
1070.1  8045.3534
1070.05  7833.2159
1070  8198.3735
1069.95  7492.0245
1069.9  7917.876
1069.85  7959.6563
1069.8  8372.6292
1069.75  8025.4214
1069.7  8158.198
1069.65  8317.4803
1069.6  8145.5456
1069.55  8012.0539
1069.5  8224.6492
1069.45  7783.2037
1069.4  8073.3979
1069.35  8243.3939
1069.3  8188.3898
1069.25  8407.2064
1069.2  8462.0355
1069.15  8200.2624
1069.1  8174.033
1069.05  8244.9078
1069  8127.1869
1068.95  8048.8006
1068.9  7828.2829
1068.85  8269.5262
1068.8  8010.7733
1068.75  8002.7762
1068.7  8117.563
1068.65  7629.3948
1068.6  8168.521
1068.55  8114.1078
1068.5  8106.4988
1068.45  8256.2896
1068.4  8232.4614
1068.35  7849.0815
1068.3  8350.9283
1068.25  8072.4266
1068.2  8181.29
1068.15  8293.6841
1068.1  8251.2951
1068.05  8373.1616
1068  8225.0137

# Cycle: 0, Curve: 0, Scan: 14
#
# Acquisition Date:             02/01/24 17:56:44 UTC+1
# ColumnLabels:                 energy counts/s
#
1080  8174.1552
1079.95  8024.031
1079.9  7871.0426
1079.85  7497.8109
1079.8  7783.4123
1079.75  8121.9357
1079.7  8376.2147
1079.65  8209.5782
1079.6  8364.6005
1079.55  8242.6792
1079.5  8012.8166
1079.45  8389.1867
1079.4  8347.4975
1079.35  8318.3963
1079.3  8244.4553
1079.25  8074.6914
1079.2  7943.5779
1079.15  7888.608
1079.1  8206.2317
1079.05  8428.293
1079  8665.1964
1078.95  8114.8615
1078.9  8182.9575
1078.85  8033.2433
1078.8  8114.3717
1078.75  8372.0554
1078.7  7781.6847
1078.65  7882.9477
1078.6  8231.3864
1078.55  8092.127
1078.5  7773.0518
1078.45  8104.1536
1078.4  7776.3264
1078.35  7461.8645
1078.3  7956.7481
1078.25  8565.5044
1078.2  8405.6489
1078.15  8189.5087
1078.1  8216.4804
1078.05  8166.7074
1078  8072.3998
1077.95  7879.2409
1077.9  7780.2043
1077.85  7702.6113
1077.8  8167.6125
1077.75  8061.4126
1077.7  8049.6298
1077.65  8099.3747
1077.6  8023.7297
1077.55  7868.5083
1077.5  8128.634
1077.45  8266.7994
1077.4  8039.6941
1077.35  7404.1246
1077.3  8037.1333
1077.25  7813.6988
1077.2  8063.6837
1077.15  8035.7634
1077.1  8474.2714
1077.05  8678.9956
1077  8402.8833
1076.95  8216.4775
1076.9  8198.5139
1076.85  7862.2719
1076.8  8267.4675
1076.75  8155.1935
1076.7  8115.3925
1076.65  8207.0801
1076.6  8917.8543
1076.55  8232.0244
1076.5  7939.3731
1076.45  8220.9103
1076.4  8340.0256
1076.35  8251.7105
1076.3  8077.7226
1076.25  8219.0523
1076.2  8396.2015
1076.15  8172.1575
1076.1  8255.3075
1076.05  7925.9374
1076  8128.6668
1075.95  8397.3274
1075.9  8416.6907
1075.85  8124.3941
1075.8  7717.836
1075.75  8062.028
1075.7  7855.1472
1075.65  8266.4503
1075.6  7994.5803
1075.55  7966.2631
1075.5  8507.1312
1075.45  8213.2275
1075.4  7938.1034
1075.35  8138.4744
1075.3  7774.9316
1075.25  7893.3911
1075.2  7910.6914
1075.15  7686.5465
1075.1  7910.7569
1075.05  8367.002
1075  8628.6163
1074.95  8139.3259
1074.9  8548.6404
1074.85  8436.1665
1074.8  8108.6293
1074.75  8581.8562
1074.7  8074.1883
1074.65  7926.9787
1074.6  8377.283
1074.55  7880.4771
1074.5  8600.9125
1074.45  8495.1471
1074.4  8604.129
1074.35  8186.0115
1074.3  8390.7943
1074.25  8344.375
1074.2  7954.8227
1074.15  8430.8771
1074.1  8460.4393
1074.05  8670.1838
1074  8634.1152
1073.95  8649.1319
1073.9  8354.4038
1073.85  8328.4727
1073.8  8212.241
1073.75  8060.4826
1073.7  8641.1103
1073.65  8466.613
1073.6  8758.2272
1073.55  8151.3995
1073.5  8742.3188
1073.45  8825.8531
1073.4  8353.6311
1073.35  8400.6468
1073.3  8329.5019
1073.25  8454.2511
1073.2  8948.9918
1073.15  8567.8598
1073.1  9112.4561
1073.05  8211.3819
1073  8238.894
1072.95  8416.8085
1072.9  8297.3881
1072.85  8502.6866
1072.8  8195.9534
1072.75  8650.5781
1072.7  8524.7283
1072.65  8915.4304
1072.6  8463.8131
1072.55  8491.8447
1072.5  8385.6239
1072.45  8581.3248
1072.4  8776.1321
1072.35  9018.3391
1072.3  8754.5981
1072.25  8149.8495
1072.2  8831.1343
1072.15  8323.5804
1072.1  8232.4277
1072.05  8224.5211
1072  8319.9688
1071.95  8057.8792
1071.9  7942.9172
1071.85  8444.0795
1071.8  8128.7732
1071.75  8621.0503
1071.7  8528.2269
1071.65  8111.9775
1071.6  8457.7641
1071.55  8316.5104
1071.5  8371.485
1071.45  8231.2613
1071.4  8068.5044
1071.35  8411.4357
1071.3  8594.8921
1071.25  8431.4424
1071.2  8003.9178
1071.15  8319.8538
1071.1  8085.8805
1071.05  8267.3768
1071  8499.9303
1070.95  8363.1735
1070.9  8143.8515
1070.85  7525.2898
1070.8  7861.0104
1070.75  8238.4676
1070.7  8563.1461
1070.65  8424.3493
1070.6  7922.6473
1070.55  7886.8048
1070.5  8095.3151
1070.45  7973.917
1070.4  8249.6895
1070.35  7929.1339
1070.3  8025.6957
1070.25  8092.2789
1070.2  7914.8893
1070.15  8124.4584
1070.1  7665.9195
1070.05  8138.1734
1070  8586.9968
1069.95  8673.6487
1069.9  8311.9936
1069.85  8558.345
1069.8  8619.6847
1069.75  8269.0012
1069.7  7868.4244
1069.65  7976.5534
1069.6  7818.8213
1069.55  7624.9088
1069.5  7897.6868
1069.45  8345.3725
1069.4  8028.905
1069.35  7600.426
1069.3  8264.7369
1069.25  8418.6867
1069.2  8161.0845
1069.15  8078.2249
1069.1  8032.7769
1069.05  8125.5689
1069  8000.1794
1068.95  8054.6491
1068.9  7678.6583
1068.85  7778.1863
1068.8  7864.6968
1068.75  8053.1093
1068.7  8352.2418
1068.65  8244.1345
1068.6  8161.1971
1068.55  8352.2413
1068.5  7939.0695
1068.45  7996.0037
1068.4  7720.8858
1068.35  7645.313
1068.3  8012.1692
1068.25  7791.0821
1068.2  8249.9227
1068.15  8362.6113
1068.1  8236.4165
1068.05  8487.0959
1068  8504.6199

# Region:                       Au4f
# Spectrum ID:                  5
# Acquisition Date:             02/01/24 17:57:14 UTC+1
# Analysis Method:              XPS
# Analyzer:                     Phoibos DLD
# Analyzer Lens:                AngleResolvedMode30:1.5kV
# Analyzer Slit:                3:1x20\B:open
# Scan Mode:                    FixedAnalyzerTransmission
# Scan Variable:                Binding Energy
# Curves/Scan:                  1
# Values/Curve:                 161
# Dwell Time:                   0.1
# Excitation Energy:            1270
# Binding Energy:               90
# Pass Energy:                  50
# Bias Voltage:                 5
# Detector Voltage:             1915
# Eff. Workfunction:            4.37
# Source:                       Monochromator (Dummy)
# Comment:                      
# OrdinateRange:                [-22.000000, 22.000000]

# Cycle: 0
#
# Number of Scans: 1

# Cycle: 0, Curve: 0, Scan: 0
#
# Acquisition Date:             02/01/24 17:57:14 UTC+1
# ColumnLabels:                 energy counts/s
#
90  14053.167
89.95  14612.039
89.9  14514.852
89.85  15086.241
89.8  15942.662
89.75  15485.223
89.7  15668.207
89.65  17212.479
89.6  17269.963
89.55  17936.803
89.5  18406.374
89.45  19946.942
89.4  21171.21
89.35  22565.694
89.3  24264.773
89.25  25194.398
89.2  28065.479
89.15  31315.817
89.1  34284.939
89.05  38813.941
89  43389.138
88.95  48881.441
88.9  55628.402
88.85  64339.144
88.8  74084.474
88.75  82341.262
88.7  93809.159
88.65  100707.15
88.6  106217.64
88.55  109805.04
88.5  108630.31
88.45  104468.53
88.4  100291.45
88.35  91709.691
88.3  81581.652
88.25  71860.806
88.2  62812.788
88.15  54425.57
88.1  46510.387
88.05  40855.08
88  35704.644
87.95  31753.935
87.9  28249.751
87.85  26017.181
87.8  23455.686
87.75  21350.277
87.7  19952.366
87.65  19266.095
87.6  17689.376
87.55  16711.878
87.5  16352.578
87.45  15574.792
87.4  14788.07
87.35  14583.481
87.3  13614.933
87.25  13483.166
87.2  13224.453
87.15  13090.014
87.1  12289.335
87.05  12851.409
87  12381.306
86.95  12333.601
86.9  12020.684
86.85  11674.034
86.8  12316.618
86.75  11699.56
86.7  11945.87
86.65  12387.165
86.6  12916.814
86.55  12529.434
86.5  12145.879
86.45  12321.552
86.4  12996.703
86.35  12903.6
86.3  13028.436
86.25  13160.649
86.2  13821.048
86.15  14533.416
86.1  15329.999
86.05  16148.759
86  17075.902
85.95  17068.195
85.9  17779.534
85.85  19114.804
85.8  19727.495
85.75  21175.697
85.7  22076.207
85.65  24612.221
85.6  26777.696
85.55  29124.488
85.5  33370.041
85.45  36931.385
85.4  41598.989
85.35  45979.779
85.3  53303.96
85.25  61713.133
85.2  71527.632
85.15  83731.387
85.1  94718.577
85.05  107765.75
85  119661.8
84.95  127750.94
84.9  133650.21
84.85  135431.28
84.8  132789.41
84.75  125600.87
84.7  117842.2
84.65  104702.89
84.6  91066.332
84.55  80236.418
84.5  69644.832
84.45  58241.615
84.4  48966.446
84.35  41932.682
84.3  36094.804
84.25  30177.353
84.2  25987.501
84.15  22072.774
84.1  19536.153
84.05  17500.084
84  15584.486
83.95  13890.932
83.9  12696.851
83.85  12315.038
83.8  11028.178
83.75  10463.517
83.7  9699.1006
83.65  9216.2839
83.6  8803.0626
83.55  7856.7696
83.5  7585.74
83.45  7296.0079
83.4  6846.9932
83.35  6503.5838
83.3  5879.4864
83.25  6063.1667
83.2  5697.4927
83.15  5169.9733
83.1  5103.9867
83.05  4917.3578
83  4889.7257
82.95  4993.9936
82.9  4666.5592
82.85  4756.7283
82.8  4315.0877
82.75  4250.1548
82.7  4097.2798
82.65  4131.4525
82.6  3640.9927
82.55  3527.5746
82.5  3146.4589
82.45  3246.5697
82.4  3576.0239
82.35  3458.6669
82.3  3662.3796
82.25  3339.3601
82.2  3152.6421
82.15  3321.1986
82.1  3403.5984
82.05  2937.473
82  3223.8875

